wavelength(nm)	flourescence PMT(V)	ti_saph Power (V)	Gain (V)
799.5154997256233	0.009966666666666785	0.024400000000000022	1
799.5154021166321	0.010033333333333455	0.01546666666666668	1
799.5154021166321	0.010033333333333455	0.02040000000000002	1
799.5154589284291	0.01000000000000012	0.02586666666666669	1
799.5154589284291	0.010033333333333455	0.02586666666666669	1
799.5155116977656	0.01000000000000012	0.02013333333333335	1
799.5155116977656	0.009966666666666785	0.02426666666666669	1
799.5155692373148	0.009966666666666785	0.014933333333333347	1
799.5155692373148	0.01000000000000012	0.024400000000000022	1
799.5154044168054	0.01000000000000012	0.02360000000000002	1
799.5164853366047	0.010033333333333455	0.023466666666666688	1
799.5164853366047	0.009966666666666785	0.023066666666666687	1
799.5164617232555	0.01000000000000012	0.025733333333333355	1
799.5164617232555	0.01000000000000012	0.02200000000000002	1
799.5155195905926	0.01000000000000012	0.022533333333333353	1
799.5155195905926	0.01000000000000012	0.019200000000000016	1
799.5156348886189	0.009933333333333454	0.019200000000000016	1
799.5156348886189	0.009966666666666785	0.017866666666666683	1
799.5155329401612	0.010033333333333455	0.016000000000000014	1
799.5164311391013	0.01000000000000012	0.016800000000000016	1
799.5164311391013	0.01000000000000012	0.021466666666666686	1
799.5164709167942	0.010066666666666786	0.02280000000000002	1
799.5164709167942	0.010033333333333455	0.02173333333333335	1
799.5164497204595	0.010066666666666786	0.025733333333333355	1
799.5164497204595	0.01000000000000012	0.021866666666666687	1
799.5146446747563	0.01000000000000012	0.02666666666666669	1
799.5146446747563	0.01000000000000012	0.013333333333333345	1
799.4225775633163	0.01000000000000012	0.010266666666666676	1
799.515522600642	0.010033333333333455	0.014800000000000013	1
799.515522600642	0.010033333333333455	0.014800000000000013	1
799.5154888166572	0.010033333333333455	0.019600000000000017	1
799.5154888166572	0.01000000000000012	0.02013333333333335	1
799.5155150738533	0.01010000000000012	0.020000000000000018	1
799.5155150738533	0.01010000000000012	0.02386666666666669	1
799.5155122769779	0.010033333333333455	0.01693333333333335	1
799.5151592146775	0.01000000000000012	0.021200000000000017	1
799.5151592146775	0.010033333333333455	0.02400000000000002	1
799.5145959535151	0.01000000000000012	0.01506666666666668	1
799.5145959535151	0.010033333333333455	0.018266666666666685	1
799.5146712794232	0.010066666666666786	0.022533333333333353	1
799.5146712794232	0.010066666666666786	0.02680000000000002	1
799.514555901996	0.01000000000000012	0.02680000000000002	1
799.514555901996	0.01000000000000012	0.02680000000000002	1
799.4213983881385	0.010066666666666786	0.02386666666666669	1
799.4213983881385	0.010066666666666786	0.023066666666666687	1
799.5145666954728	0.010033333333333455	0.021066666666666685	1
800.3671319358125	0.01000000000000012	0.02426666666666669	1
800.3671319358125	0.010066666666666786	0.040000000000000036	1
800.3297835646603	0.010033333333333455	0.040000000000000036	1
800.3297835646603	0.010033333333333455	0.040000000000000036	1
801.1298613457268	0.010033333333333455	0.14373333333333344	1
801.1298613457268	0.010033333333333455	0.15453333333333347	1
801.1298762662009	0.01000000000000012	0.1506666666666668	1
801.1298762662009	0.01000000000000012	0.1506666666666668	1
801.2243293058006	0.01000000000000012	0.1641333333333335	1
801.2243293058006	0.009966666666666785	0.19586666666666683	1
801.2243293058006	0.010066666666666786	0.19960000000000017	1
801.6070029927596	0.010033333333333455	0.2078666666666668	1
801.6070029927596	0.009966666666666785	0.3103999999999999	1
801.6995404665998	0.01000000000000012	0.35999999999999993	1
801.6995404665998	0.010133333333333454	0.3601333333333332	1
802.3659311246394	0.010066666666666786	0.6088	1
802.3659311246394	0.010033333333333455	1.3313333333333328	1
802.6559860298671	0.01000000000000012	1.9293333333333331	1
802.6559860298671	0.01000000000000012	2.1243999999999996	1
802.8449324322144	0.009866666666666786	2.592133333333333	1
802.8449324322144	0.010066666666666786	2.592133333333333	1
803.6094277610259	0.01000000000000012	3.3008	1
803.6094277610259	0.010033333333333455	4.4142666666666655	1
803.6094061851051	0.009466666666666786	4.5024	1
804.0889704091901	0.006100000000000117	4.700266666666667	1
804.0889704091901	0.009566666666666786	5.156133333333332	1
804.3746686639658	0.009966666666666785	5.674133333333333	1
804.3746686639658	0.009966666666666785	5.920933333333333	1
804.3771731090523	0.010133333333333454	5.905466666666666	1
804.3771731090523	0.01010000000000012	5.8427999999999995	1
804.4699700739097	0.01010000000000012	5.683733333333333	1
804.4699700739097	0.01000000000000012	5.562133333333333	1
804.8548444850225	0.01010000000000012	5.562133333333333	1
804.8548444850225	0.01000000000000012	5.755466666666667	1
804.8559292562969	0.00990000000000012	5.833466666666666	1
804.8559292562969	0.009933333333333454	5.9112	1
804.9491285450335	0.010133333333333454	5.883466666666666	1
804.9491285450335	0.010033333333333455	5.895066666666666	1
806.0115509674554	0.009733333333333453	5.989333333333334	1
806.0115509674554	0.009600000000000119	6.1160000000000005	1
806.00841342476	0.009300000000000119	6.0488	1
806.00841342476	0.01000000000000012	5.8036	1
806.107752186258	0.01010000000000012	5.852133333333333	1
806.107752186258	0.01010000000000012	5.7085333333333335	1
806.8779644867317	0.010033333333333455	5.728666666666666	1
806.8779644867317	0.009933333333333454	5.728666666666666	1
807.1666702082516	0.009966666666666785	5.9526666666666666	1
807.1666702082516	0.01000000000000012	5.719066666666666	1
807.7446144344389	0.010133333333333454	5.771199999999999	1
807.7464063617826	0.01000000000000012	6.076	1
807.7464063617826	0.01000000000000012	6.2024	1
808.0369282640131	0.010066666666666786	6.1677333333333335	1
808.0369282640131	0.009833333333333453	5.911866666666667	1
808.2270700424825	0.009966666666666785	5.694133333333332	1
808.2270700424825	0.009966666666666785	5.821599999999999	1
808.2282299328753	0.010133333333333454	6.042	1
808.2282299328753	0.010133333333333454	6.0687999999999995	1
808.5213747399814	0.010366666666666786	5.817599999999999	1
808.5213747399814	0.010133333333333454	5.817599999999999	1
809.3913630338159	0.010066666666666786	5.9056	1
809.3913630338159	0.009966666666666785	5.7968	1
809.7832448919419	0.010066666666666786	5.6917333333333335	1
809.7832448919419	0.01000000000000012	5.680933333333332	1
809.7831715466567	0.010066666666666786	5.619333333333333	1
809.7831715466567	0.01000000000000012	5.642133333333333	1
810.2698572921878	0.009966666666666785	5.579333333333333	1
810.2698572921878	0.010066666666666786	5.8162666666666665	1
810.6550020584118	0.009766666666666786	6.0816	1
810.6550020584118	0.009766666666666786	5.971066666666665	1
811.2436067603256	0.009866666666666786	5.773333333333333	1
811.2436067603256	0.01010000000000012	5.773333333333333	1
811.3406270760498	0.01000000000000012	5.863333333333333	1
811.3406270760498	0.010066666666666786	5.785333333333333	1
811.4351248594905	0.01000000000000012	5.654666666666666	1
811.4351248594905	0.010033333333333455	5.607999999999999	1
811.5319835986866	0.010033333333333455	5.403066666666667	1
811.5319835986866	0.010166666666666787	5.710266666666667	1
811.9237452233184	0.01010000000000012	5.851333333333332	1
811.9237452233184	0.01000000000000012	5.8751999999999995	1
811.9236550949078	0.010166666666666787	5.8759999999999994	1
811.9236550949078	0.010166666666666787	5.872133333333333	1
812.705801012503	0.010166666666666787	5.809733333333334	1
812.705801012503	0.010033333333333455	5.7516	1
812.705801012503	0.010033333333333455	5.7516	1
812.705801012503	0.009966666666666785	5.792799999999999	1
813.054817069013	0.010033333333333455	5.763333333333333	1
813.054817069013	0.009966666666666785	5.759333333333332	1
813.0559542205681	0.009966666666666785	5.742266666666666	1
813.9815120780357	0.01000000000000012	5.636666666666665	1
813.9815120780357	0.010033333333333455	5.593333333333334	1
813.9826184016617	0.010033333333333455	5.715866666666668	1
813.9826184016617	0.01000000000000012	5.717333333333334	1
813.9819848939435	0.01000000000000012	5.700133333333334	1
813.9819848939435	0.01000000000000012	5.489599999999999	1
814.7702873140212	0.01000000000000012	5.811599999999999	1
814.7702873140212	0.010066666666666786	5.947333333333334	1
814.7693437202765	0.01010000000000012	5.947333333333334	1
814.7693437202765	0.010233333333333454	5.9044	1
815.1169922369912	0.01010000000000012	5.898133333333334	1
815.1169922369912	0.010033333333333455	5.959866666666667	1
815.2618167603097	0.010033333333333455	5.8882666666666665	1
815.2618167603097	0.010066666666666786	5.8116	1
815.4160615319945	0.010066666666666786	5.734000000000001	1
815.4160615319945	0.009966666666666785	5.600933333333333	1
815.5565946762473	0.00990000000000012	5.504666666666665	1
815.5565946762473	0.009933333333333454	5.575599999999999	1
816.2491355927933	0.009700000000000118	5.4952	1
816.2491355927933	0.009700000000000118	5.78	1
816.8437153342044	0.010033333333333455	5.9564	1
816.8437153342044	0.01000000000000012	5.9564	1
817.4762558272743	0.010033333333333455	5.899066666666666	1
817.4762558272743	0.009966666666666785	5.7816	1
817.4911232663777	0.01000000000000012	5.696	1
817.4911232663777	0.01000000000000012	5.701733333333333	1
817.636710251375	0.010033333333333455	5.671333333333334	1
817.636710251375	0.010033333333333455	5.716	1
817.636710251375	0.01000000000000012	5.837066666666666	1
817.636710251375	0.01010000000000012	5.721466666666667	1
818.6241252437569	0.010066666666666786	5.709866666666667	1
818.6241252437569	0.010066666666666786	5.729733333333334	1
818.6250734864792	0.010033333333333455	5.805066666666667	1
818.6250734864792	0.01010000000000012	5.805066666666667	1
818.926621045126	0.010066666666666786	5.881866666666666	1
818.926621045126	0.01000000000000012	5.849333333333332	1
819.7244416639038	0.01000000000000012	5.985866666666666	1
819.7244416639038	0.01000000000000012	6.0010666666666665	1
819.8233776891166	0.009966666666666785	5.9596	1
819.8233776891166	0.009833333333333453	6.089733333333333	1
820.6189207807546	0.01000000000000012	6.0564	1
820.6189207807546	0.010033333333333455	5.9243999999999994	1
820.6190033763941	0.00980000000000012	6.0170666666666675	1
821.0223262982097	0.009033333333333452	6.108133333333334	1
821.0223262982097	0.009033333333333452	6.144933333333333	1
821.1162641871344	0.009533333333333453	6.1956	1
821.1162641871344	0.010033333333333455	6.1956	1
821.8220950071355	0.009933333333333454	6.120133333333333	1
821.8220950071355	0.01000000000000012	6.2783999999999995	1
822.1747929558558	0.009933333333333454	6.279466666666665	1
822.1747929558558	0.00950000000000012	6.249466666666667	1
822.3216238523947	0.009066666666666785	6.200666666666667	1
822.3216238523947	0.01000000000000012	6.301866666666666	1
822.322726979401	0.00990000000000012	6.4168	1
822.322726979401	0.00940000000000012	6.1752	1
822.7239651421937	0.009600000000000119	6.128	1
822.7239651421937	0.010033333333333455	6.258666666666667	1
823.5288933740891	0.010033333333333455	6.2276	1
823.5288933740891	0.010033333333333455	6.374266666666668	1
823.5288748368589	0.01000000000000012	6.374266666666668	1
823.5288748368589	0.01000000000000012	6.5076	1
824.0296850064317	0.009733333333333453	6.721066666666666	1
824.0296850064317	0.00980000000000012	6.733866666666667	1
824.3848279508048	0.01000000000000012	6.636533333333333	1
824.3848279508048	0.00980000000000012	6.424666666666667	1
824.4361911253988	0.00990000000000012	6.159200000000001	1
824.4361911253988	0.009733333333333453	6.012533333333334	1
824.7919022772325	0.00990000000000012	6.282799999999999	1
824.7919022772325	0.01000000000000012	6.383066666666668	1
825.2960726361929	0.01000000000000012	6.580933333333334	1
825.2960726361929	0.01000000000000012	6.6152	1
825.700704430136	0.010033333333333455	6.438000000000001	1
825.700704430136	0.01000000000000012	6.438000000000001	1
825.7013794133233	0.010033333333333455	6.522133333333333	1
825.7013794133233	0.01000000000000012	6.566133333333334	1
826.1023529562622	0.00990000000000012	6.6928	1
826.1023529562622	0.01000000000000012	6.6054666666666675	1
826.1035576141867	0.01000000000000012	6.593200000000001	1
826.1035576141867	0.01000000000000012	6.593466666666667	1
826.8139881594108	0.01000000000000012	6.739466666666667	1
826.8139881594108	0.009966666666666785	6.5164	1
827.0192297314409	0.01000000000000012	6.523066666666667	1
827.3216544938361	0.01000000000000012	6.676533333333333	1
827.3216544938361	0.01000000000000012	6.6264	1
827.8278100672708	0.01000000000000012	6.5924000000000005	1
827.8278100672708	0.01000000000000012	6.5924000000000005	1
828.1373059078611	0.009966666666666785	6.7168	1
828.1373059078611	0.009933333333333454	6.7968	1
828.1373100836594	0.009966666666666785	6.817866666666667	1
828.1373100836594	0.010033333333333455	6.8048	1
828.6436444369976	0.010033333333333455	6.707066666666665	1
828.6436444369976	0.01010000000000012	6.707599999999999	1
828.6446197185536	0.01010000000000012	6.6852	1
828.6446197185536	0.010066666666666786	6.6384	1
829.257296017313	0.010166666666666787	6.762	1
829.257296017313	0.010166666666666787	6.7401333333333335	1
829.4609177536056	0.01020000000000012	6.5414666666666665	1
829.4609177536056	0.01000000000000012	6.5414666666666665	1
829.5605458850791	0.010066666666666786	6.4416	1
829.5605458850791	0.009966666666666785	6.658133333333334	1
829.9703194135071	0.010033333333333455	6.5868	1
829.9703194135071	0.009966666666666785	6.709066666666667	1
830.3796034961305	0.009966666666666785	6.7036	1
830.3796034961305	0.01000000000000012	6.770133333333333	1
830.4281279360049	0.010033333333333455	6.7292	1
830.4281279360049	0.01000000000000012	6.650266666666666	1
830.8905620656142	0.009933333333333454	6.725066666666667	1
830.8905620656142	0.010066666666666786	6.701866666666667	1
831.1997020969221	0.010066666666666786	6.750533333333333	1
831.1997020969221	0.01000000000000012	6.8621333333333325	1
831.7135675670258	0.010066666666666786	6.8621333333333325	1
