wavelength(nm)	flourescence PMT(V)	ti_saph Power (V)	Gain (V)
799.5164084297919	0.32976666666666654	0.038133333333333366	1
799.4705304892564	0.33003333333333323	0.03653333333333337	1
799.5163020972177	0.3384999999999999	0.026400000000000024	1
799.5163020972177	0.3487999999999999	0.029200000000000028	1
799.7055530786097	0.33899999999999986	0.03293333333333336	1
799.7055530786097	0.3386999999999999	0.03453333333333337	1
799.5147054626555	0.3269333333333333	0.031200000000000026	1
799.5147054626555	0.3269333333333333	0.027200000000000023	1
799.5157160051361	0.33076666666666654	0.027733333333333356	1
799.5157160051361	0.3417999999999999	0.027733333333333356	1
799.5146151413821	0.3361999999999999	0.02520000000000002	1
799.514563863459	0.3296333333333332	0.03080000000000003	1
799.514563863459	0.3395333333333333	0.026400000000000024	1
799.705443415239	0.32746666666666663	0.027200000000000023	1
799.705443415239	0.32689999999999986	0.02386666666666669	1
799.5153665583845	0.33583333333333326	0.024933333333333356	1
799.5153665583845	0.3251333333333332	0.02586666666666669	1
799.5162840276769	0.33906666666666657	0.03106666666666669	1
799.516224904271	0.33439999999999986	0.029866666666666694	1
799.516224904271	0.3310999999999999	0.030400000000000028	1
799.7055510193541	0.3310999999999999	0.030000000000000023	1
799.7055510193541	0.33816666666666656	0.03080000000000003	1
799.5181576811111	0.33069999999999994	0.03080000000000003	1
799.5181576811111	0.33253333333333324	0.025600000000000022	1
799.5163248696581	0.3433666666666666	0.029200000000000028	1
799.5163248696581	0.33683333333333326	0.028266666666666693	1
799.4732918359311	0.3362666666666666	0.02786666666666669	1
799.4732918359311	0.33683333333333326	0.030266666666666695	1
799.4732918359311	0.33806666666666657	0.03653333333333337	1
799.5167708095496	0.3404999999999999	0.034266666666666695	1
799.5167708095496	0.3403666666666666	0.02786666666666669	1
799.5163273068625	0.33866666666666656	0.031333333333333366	1
799.5163273068625	0.33443333333333325	0.03213333333333336	1
799.5163372018416	0.33443333333333325	0.029200000000000028	1
799.5163372018416	0.33659999999999984	0.028400000000000022	1
799.5173022182188	0.3248333333333332	0.028400000000000022	1
800.3705521475486	0.3455666666666665	0.032533333333333365	1
800.3705521475486	0.3397666666666666	0.040000000000000036	1
800.6555574528055	0.33529999999999993	0.040000000000000036	1
800.6555574528055	0.33959999999999996	0.05093333333333337	1
801.1277903980755	0.33629999999999993	0.1338666666666668	1
801.1277903980755	0.3403333333333332	0.1538666666666668	1
801.223450459814	0.3247999999999999	0.1733333333333335	1
801.223450459814	0.34063333333333323	0.19506666666666683	1
801.2234510708545	0.33559999999999995	0.19920000000000018	1
801.4161633294752	0.3367333333333332	0.2013333333333335	1
801.4161633294752	0.3367333333333332	0.26439999999999997	1
801.6062247096271	0.33206666666666657	0.3433333333333332	1
801.6062247096271	0.33353333333333324	0.3433333333333332	1
802.3666477915399	0.33396666666666663	0.35999999999999993	1
802.3666477915399	0.3318666666666666	0.9859999999999999	1
802.3666477915399	0.3275999999999999	1.208	1
802.8447618792964	0.3418999999999999	1.9665333333333335	1
802.8447618792964	0.3303999999999999	2.055333333333333	1
803.1330308841448	0.33303333333333324	2.5570666666666666	1
803.1330308841448	0.33889999999999987	3.2356000000000003	1
803.6111961336268	0.32906666666666656	4.465599999999999	1
803.6111961336268	0.3365999999999999	4.600666666666666	1
803.9935505665338	0.3365999999999999	4.997066666666666	1
803.9935505665338	0.34516666666666657	5.303733333333333	1
804.3773433389551	0.3298666666666666	5.303733333333333	1
804.4701034671721	0.33349999999999996	6.007600000000001	1
804.4701034671721	0.3363333333333332	5.918666666666667	1
804.4699495332073	0.33593333333333325	5.7392	1
804.4699495332073	0.3346666666666666	5.635599999999999	1
804.5630525068395	0.3321999999999999	5.609066666666666	1
804.5630525068395	0.3357999999999999	5.705866666666666	1
804.8547668191237	0.3314666666666666	5.963733333333333	1
804.8552453944477	0.3351999999999999	5.960533333333333	1
804.8552453944477	0.3374333333333332	5.959866666666667	1
804.8565339897484	0.32673333333333326	5.96	1
804.8565339897484	0.32673333333333326	5.964933333333333	1
805.2395875968211	0.33703333333333324	5.981066666666667	1
805.2395875968211	0.3373999999999999	5.981066666666667	1
806.0122513758814	0.32756666666666656	6.213733333333333	1
806.0122513758814	0.3332333333333332	6.06	1
806.2002861616741	0.3421999999999999	6.075066666666666	1
806.8788522325269	0.3386999999999999	6.185066666666667	1
806.8788522325269	0.3397666666666666	5.7316	1
806.9719859715889	0.3381333333333333	5.836533333333334	1
806.9719859715889	0.3328999999999999	5.867333333333334	1
807.35851468509	0.3392333333333333	5.640266666666665	1
807.35851468509	0.33756666666666657	5.572533333333332	1
807.648584994243	0.3369999999999999	5.740266666666667	1
807.648584994243	0.3369999999999999	6.131866666666666	1
808.0373530564693	0.3368333333333332	6.131866666666666	1
808.1345252226731	0.33299999999999985	6.0498666666666665	1
808.1345252226731	0.32483333333333325	6.0424	1
808.1326237622536	0.33606666666666657	5.702533333333332	1
808.1326237622536	0.33903333333333324	5.664133333333333	1
808.0928268076198	0.3393999999999999	5.7528	1
808.0928268076198	0.3311999999999999	5.969733333333333	1
808.2288687681133	0.3350999999999999	6.028533333333333	1
808.2288687681133	0.32853333333333323	5.597733333333332	1
814.2386631383082	0.3351333333333332	5.583733333333333	1
809.3932457802066	0.34246666666666653	5.525066666666667	1
809.3932457802066	0.34246666666666653	5.611333333333332	1
809.7829172477619	0.3359999999999999	5.714666666666667	1
809.7829172477619	0.3363999999999999	5.714666666666667	1
809.7829330847767	0.33393333333333325	5.7884	1
809.7829330847767	0.3363999999999999	5.853066666666666	1
810.2670556252597	0.3377333333333332	5.712133333333335	1
810.2670556252597	0.3288999999999999	5.891333333333333	1
810.6580307352816	0.3403666666666666	5.896533333333333	1
811.0468978658708	0.3294999999999999	5.574533333333333	1
811.0468978658708	0.34083333333333327	5.600133333333333	1
811.3413279639783	0.33403333333333324	5.8625333333333325	1
811.3413279639783	0.32966666666666655	5.972266666666666	1
811.5738349278652	0.33203333333333324	5.8032	1
811.5738349278652	0.33203333333333324	5.5784	1
811.5335297519442	0.32956666666666656	5.505066666666667	1
811.5335297519442	0.3325999999999999	5.505066666666667	1
811.5325874488822	0.33726666666666655	5.468933333333333	1
811.924377190891	0.3237999999999999	5.5328	1
811.924377190891	0.32899999999999985	5.9496	1
811.9243646496888	0.33276666666666654	5.975466666666666	1
811.9243646496888	0.33649999999999985	5.9589333333333325	1
812.6130039154607	0.33666666666666656	5.903866666666667	1
812.6130039154607	0.32876666666666654	5.572399999999999	1
813.0540871034556	0.3342333333333332	5.756799999999999	1
813.0540871034556	0.34183333333333327	5.714933333333332	1
813.1527321569814	0.34183333333333327	5.581199999999999	1
813.4909212777559	0.3398666666666666	5.5863999999999985	1
813.4909212777559	0.33319999999999994	5.630799999999999	1
813.9822171125778	0.3278333333333332	5.630799999999999	1
813.9822171125778	0.33849999999999997	5.6790666666666665	1
813.9822282784137	0.3409999999999999	5.711066666666667	1
813.9822282784137	0.3319666666666666	5.7208000000000006	1
814.1856302785599	0.3375999999999999	5.71	1
814.1856302785599	0.3437333333333332	5.895999999999999	1
814.7719598188619	0.33606666666666657	5.938933333333333	1
814.7719127623774	0.33416666666666656	5.9273333333333325	1
814.7719127623774	0.3375999999999999	5.884533333333333	1
815.1166282093436	0.3413333333333332	5.879333333333332	1
815.1166282093436	0.33069999999999994	5.791866666666667	1
815.2614283268942	0.33069999999999994	5.6784	1
815.2614283268942	0.34016666666666656	5.6784	1
815.26141068161	0.3334666666666665	5.630266666666666	1
815.26141068161	0.33819999999999995	5.622933333333332	1
815.4149349227495	0.3383999999999999	5.621333333333332	1
816.2518232149453	0.3344999999999999	5.652533333333333	1
816.2518232149453	0.3457333333333332	5.738266666666667	1
816.8444979817276	0.3302333333333332	5.813466666666666	1
816.8444979817276	0.3271333333333332	5.8972	1
817.3354838212236	0.3321999999999999	5.8384	1
817.3354838212236	0.3212666666666666	5.694133333333333	1
817.437534983725	0.33653333333333324	5.622399999999999	1
817.437534983725	0.33653333333333324	5.717333333333333	1
817.6361676803508	0.33439999999999986	5.825866666666666	1
817.7337814590428	0.3328666666666666	5.825866666666666	1
817.7337814590428	0.3344666666666666	5.835733333333333	1
818.6291598211192	0.33653333333333324	5.721866666666666	1
818.6291598211192	0.3294999999999999	5.704533333333334	1
818.6304100751823	0.3296666666666666	5.747733333333334	1
818.6304100751823	0.3417999999999999	5.783733333333334	1
818.9277376413571	0.32979999999999987	5.8864	1
818.9277376413571	0.3435666666666666	5.960266666666667	1
818.9266930095915	0.3339666666666666	5.916533333333333	1
819.8213753256274	0.33223333333333327	6.042	1
819.8213753256274	0.34243333333333326	6.015333333333333	1
819.8252276293308	0.34243333333333326	5.962933333333334	1
819.8252276293308	0.33609999999999995	6.076266666666667	1
820.6187629921075	0.33276666666666654	6.076266666666667	1
820.6187629921075	0.34263333333333323	5.934133333333333	1
820.6197181303296	0.33206666666666657	5.903866666666667	1
820.6197181303296	0.3254999999999999	5.9296	1
821.0204034193064	0.3375999999999999	6.129333333333334	1
821.0208253189196	0.34676666666666656	6.207333333333333	1
821.0208253189196	0.33459999999999995	6.2737333333333325	1
821.0208253189196	0.3256666666666666	6.239733333333333	1
821.0208253189196	0.3429999999999999	6.280133333333334	1
821.8237986846212	0.3349666666666666	6.280399999999999	1
821.8237986846212	0.3349666666666666	6.261333333333333	1
822.1257645991196	0.3302666666666666	6.285866666666666	1
822.1257645991196	0.33996666666666653	6.285866666666666	1
822.274008453378	0.3389666666666666	6.423733333333334	1
822.274008453378	0.34133333333333327	6.378133333333333	1
822.3219328842263	0.34466666666666657	6.260666666666666	1
822.7247715582336	0.3231999999999999	6.186533333333333	1
822.7247715582336	0.33933333333333326	6.175066666666667	1
823.5259781640543	0.3356999999999999	6.3116	1
823.5259781640543	0.33893333333333325	6.613066666666667	1
823.5259713624162	0.33653333333333324	6.6952	1
823.5259713624162	0.34176666666666655	6.688533333333333	1
823.8834817862671	0.33103333333333324	6.574666666666667	1
823.8834817862671	0.33103333333333324	6.540933333333333	1
824.4353456673919	0.3344666666666666	6.0656	1
824.435321154521	0.3313666666666666	6.0656	1
824.435321154521	0.33233333333333326	6.0756000000000006	1
824.4322448898558	0.33459999999999995	6.130666666666667	1
824.4322448898558	0.35389999999999994	6.3888	1
824.7900498321915	0.3377666666666666	6.469333333333334	1
824.7900498321915	0.33613333333333323	6.471466666666667	1
825.5999498910032	0.33866666666666656	6.577466666666667	1
825.5999498910032	0.33939999999999987	6.486666666666666	1
825.7885573244138	0.33269999999999994	6.509600000000001	1
825.7462475176153	0.3314999999999999	6.4564	1
825.7462475176153	0.3362666666666666	6.4624	1
826.1068576181916	0.3362666666666666	6.560133333333333	1
826.1068576181916	0.3407666666666666	6.576533333333334	1
826.1067935863078	0.3362333333333333	6.576533333333334	1
826.1067935863078	0.32646666666666657	6.5712	1
826.810968300783	0.33306666666666657	6.574266666666667	1
826.810968300783	0.3345999999999999	6.679866666666666	1
826.9173894627055	0.33813333333333323	6.5668	1
827.2225351683343	0.3294666666666666	6.539866666666667	1
827.2225351683343	0.34166666666666656	6.4989333333333335	1
827.7303111776748	0.3333999999999999	6.7392	1
827.7303111776748	0.3410666666666666	6.659066666666667	1
828.0332747944597	0.34089999999999987	6.6168000000000005	1
828.0332747944597	0.34089999999999987	6.593066666666667	1
828.2372687181645	0.33909999999999985	6.748933333333334	1
828.2372687181645	0.3339666666666666	6.748933333333334	1
828.1382568270566	0.3410666666666666	6.762	1
828.1382568270566	0.34116666666666656	6.719866666666666	1
828.6443200491931	0.3447333333333332	6.676266666666666	1
828.6443200491931	0.3371999999999999	6.608133333333334	1
828.6443200491931	0.33423333333333327	6.639466666666667	1
829.2524740897566	0.3398666666666666	6.666533333333334	1
829.2524740897566	0.34366666666666656	6.502666666666666	1
829.4591359727596	0.33639999999999987	6.592666666666667	1
829.4591359727596	0.33876666666666655	6.7013333333333325	1
829.8720359026247	0.3379333333333332	7.067333333333333	1
829.8720359026247	0.3379333333333332	6.937733333333332	1
829.9712507440881	0.3335999999999999	6.594666666666667	1
830.3787330756022	0.33786666666666654	6.594666666666667	1
830.3787330756022	0.3406666666666666	6.725866666666666	1
830.4820595560676	0.33569999999999983	6.795466666666667	1
830.4820595560676	0.3432666666666666	6.666133333333334	1
