wavelength(nm)	flourescence PMT(V)	ti_saph Power (V)	Gain (V)
799.1368888929233	0.33269999999999994	0.009466666666666675	1
799.1368888929233	0.3324666666666666	0.0009333333333333342	1
799.1387803718821	0.33803333333333324	-0.0005333333333333338	1
799.1387803718821	0.3349666666666666	0.005200000000000005	1
799.1376173403838	0.33816666666666656	0.008400000000000008	1
799.1376173403838	0.34043333333333325	0.002666666666666669	1
799.1378901046551	0.3381999999999999	-0.005333333333333338	1
799.1369276493208	0.3353333333333332	-0.002400000000000002	1
799.1369276493208	0.3353333333333332	0.0005333333333333338	1
799.1371646289625	0.3347666666666666	0.0022666666666666686	1
799.1371646289625	0.3309666666666666	0.0022666666666666686	1
799.137815924921	0.33616666666666656	0.00426666666666667	1
799.137815924921	0.3368333333333332	-0.0009333333333333342	1
799.1378960204331	0.3266999999999999	0.0009333333333333342	1
799.1369249130875	0.3361666666666666	0.00386666666666667	1
799.1369249130875	0.3361999999999999	0.0040000000000000036	1
799.1369557452691	0.3425999999999999	-0.004800000000000004	1
799.1369557452691	0.3374666666666666	0.005333333333333338	1
799.1373251777839	0.3370666666666665	-0.0008000000000000007	1
799.1373251777839	0.3414666666666666	0.00426666666666667	1
799.137875491215	0.33419999999999994	-0.01080000000000001	1
799.1378915620982	0.3445999999999999	-0.001200000000000001	1
799.1378915620982	0.3445999999999999	-0.002533333333333336	1
799.1372154968561	0.3317666666666666	-0.002533333333333336	1
799.1372154968561	0.3357333333333332	-0.0057333333333333385	1
799.1378545828336	0.3374999999999999	0.002400000000000002	1
799.1378545828336	0.3305666666666666	-0.005600000000000005	1
799.1370146608422	0.3281999999999999	-0.004800000000000004	1
799.1369511864918	0.3351666666666666	-0.009600000000000008	1
799.1369511864918	0.33383333333333326	-0.006800000000000006	1
799.137295366287	0.33706666666666657	0.0034666666666666695	1
799.137295366287	0.3364666666666666	-0.007866666666666673	1
799.137762497816	0.3393666666666666	-0.0028000000000000026	1
799.137762497816	0.3299666666666666	-0.002666666666666669	1
799.1378286974351	0.3299666666666666	-0.005333333333333338	1
799.8961306461304	0.32893333333333324	0.01693333333333335	1
799.8961306461304	0.33493333333333325	0.01693333333333335	1
800.3694878474884	0.3258999999999999	0.0398666666666667	1
800.3694878474884	0.32883333333333326	0.040000000000000036	1
800.4627794347298	0.3418999999999999	0.040000000000000036	1
800.4627794347298	0.3331333333333332	0.040000000000000036	1
800.7493082885079	0.3300999999999999	0.040000000000000036	1
801.12926123055	0.3318666666666666	0.07866666666666675	1
801.12926123055	0.3331333333333332	0.16466666666666682	1
801.2238527936565	0.33329999999999993	0.18746666666666684	1
801.2238527936565	0.3418333333333332	0.1984000000000002	1
801.2238504480407	0.33813333333333323	0.1993333333333335	1
801.2238504480407	0.33813333333333323	0.1984000000000002	1
801.2238504480407	0.33559999999999995	0.1984000000000002	1
801.2238504480407	0.33039999999999986	0.20106666666666684	1
801.6033052623959	0.3372666666666666	0.31279999999999986	1
801.6033095555924	0.33876666666666655	0.35999999999999993	1
801.6033095555924	0.3379666666666666	0.35999999999999993	1
802.4611703080576	0.3361666666666666	1.3055999999999996	1
802.4611703080576	0.33886666666666654	1.8162666666666667	1
802.845154994383	0.3367333333333333	2.1438666666666664	1
803.2279169427355	0.3388999999999999	2.3162666666666665	1
803.2279169427355	0.33666666666666656	3.1935999999999996	1
803.2279082763148	0.3297666666666666	3.4248000000000003	1
803.2279082763148	0.3297666666666666	4.6548	1
803.7056815839574	0.33819999999999995	4.7852	1
803.7056815839574	0.34466666666666657	4.7852	1
803.9930479422853	0.3407999999999999	4.806266666666667	1
803.9930479422853	0.3214999999999999	5.138133333333333	1
804.3776810382548	0.32643333333333324	5.902266666666666	1
804.5136419722343	0.3423333333333332	5.991733333333333	1
804.5136419722343	0.3231333333333332	5.932933333333333	1
804.4696859621905	0.34313333333333323	5.876933333333333	1
804.4696859621905	0.33316666666666656	5.708	1
804.8546019364247	0.33693333333333325	5.767333333333332	1
804.8546019364247	0.33586666666666654	5.809733333333333	1
804.857674294782	0.34513333333333324	5.811066666666667	1
804.9527036946154	0.34513333333333324	5.8904	1
804.9527036946154	0.33266666666666656	6.015466666666666	1
806.0109312983997	0.3416333333333333	6.015466666666666	1
806.0109312983997	0.3316333333333333	6.2311999999999985	1
806.1454606190244	0.33076666666666654	6.1896	1
806.1454606190244	0.32706666666666656	5.9744	1
806.2452936288894	0.34076666666666655	5.9268	1
806.8757848617166	0.33216666666666655	6.044	1
806.8757848617166	0.3376999999999999	5.7350666666666665	1
806.8757848617166	0.3396666666666666	6.065866666666666	1
806.8757848617166	0.33093333333333325	6.231999999999999	1
807.3599736790399	0.33003333333333323	5.707333333333333	1
807.3599736790399	0.33003333333333323	5.670266666666667	1
807.359971295855	0.33713333333333323	5.640399999999999	1
807.6490141299927	0.32793333333333324	5.640399999999999	1
807.6490141299927	0.3434999999999999	5.732666666666666	1
808.0389340470717	0.33829999999999993	5.9716000000000005	1
808.0389340470717	0.33149999999999996	6.172933333333334	1
808.1341095622457	0.3372666666666666	5.874533333333334	1
808.1341095622457	0.33683333333333326	5.812799999999999	1
808.2293605030579	0.33296666666666663	5.926266666666667	1
808.2294763641714	0.34906666666666664	6.110666666666668	1
808.2294763641714	0.33629999999999993	6.099600000000001	1
808.4245874060048	0.33266666666666656	5.749866666666667	1
808.4245874060048	0.33266666666666656	5.643066666666665	1
809.2982859334064	0.33996666666666653	5.935066666666667	1
809.2982859334064	0.33439999999999986	5.935066666666667	1
809.6852755111784	0.3322999999999999	5.7552	1
809.7810063737611	0.33366666666666656	5.7572	1
809.7810063737611	0.3368666666666666	5.7742666666666675	1
810.2688109222676	0.3292666666666666	5.755199999999999	1
810.2688109222676	0.3398999999999999	5.658533333333333	1
810.6537166813304	0.3364666666666666	5.930666666666666	1
810.6537166813304	0.3378999999999999	6.090533333333334	1
810.7532659665749	0.34043333333333325	5.9388	1
811.3392627518008	0.32616666666666655	5.9208	1
811.3392627518008	0.3336333333333332	6.0363999999999995	1
811.3393983940744	0.3336333333333332	5.970133333333333	1
811.3393983940744	0.33816666666666656	5.727866666666667	1
811.4391818044751	0.32626666666666654	5.727866666666667	1
811.4391818044751	0.33619999999999994	5.628799999999999	1
811.7330299631632	0.33433333333333326	5.515333333333333	1
811.8294173438366	0.33656666666666657	5.545333333333333	1
811.8294173438366	0.34366666666666656	5.869066666666666	1
811.9234681480795	0.33206666666666657	5.9585333333333335	1
811.9234681480795	0.3367999999999999	5.953333333333333	1
812.6109303333889	0.32233333333333325	5.942399999999999	1
812.6109303333889	0.34313333333333323	5.8236	1
813.0966286980215	0.33546666666666664	5.7998666666666665	1
813.0966286980215	0.33546666666666664	5.799733333333333	1
813.1008482972908	0.3396999999999999	5.782399999999999	1
813.100809644744	0.33326666666666654	5.782399999999999	1
813.100809644744	0.3334999999999999	5.663866666666666	1
813.9826599759906	0.3378999999999999	5.706	1
813.9826599759906	0.3417999999999999	5.766533333333333	1
813.9812622299102	0.33439999999999986	5.795733333333334	1
813.9812622299102	0.33756666666666657	5.776533333333334	1
814.0953021874909	0.32856666666666656	5.739733333333334	1
814.772475282254	0.33326666666666654	5.665866666666666	1
814.772475282254	0.3322999999999999	5.94	1
814.7724285190892	0.33559999999999995	5.952933333333334	1
814.7724285190892	0.33559999999999995	5.957199999999999	1
815.119126400055	0.33459999999999995	6.0296	1
815.119126400055	0.32836666666666653	6.0296	1
815.1201607296925	0.3444666666666666	5.999866666666667	1
815.1201607296925	0.3325999999999999	5.960133333333333	1
815.2617104265443	0.3339999999999999	5.930266666666666	1
815.2617583564848	0.33193333333333325	5.869199999999999	1
815.2617583564848	0.3402333333333332	5.792666666666667	1
815.4156625755736	0.33829999999999993	5.669199999999999	1
815.4156625755736	0.3298999999999999	5.5684	1
