wavelength(nm)	flourescence PMT(V)	ti_saph Power (V)	Gain (V)
800.3692536721571	0.3880999999999999	0.040000000000000036	1
800.7481316759406	0.39433333333333326	0.040000000000000036	1
800.7481316759406	0.3893999999999999	0.04906666666666671	1
800.7481316759406	0.39293333333333325	0.09080000000000008	1
800.7481316759406	0.38793333333333324	0.20066666666666683	1
801.2216478115663	0.3886333333333333	0.2014666666666668	1
801.2217158181263	0.3886333333333333	0.2009333333333335	1
801.2217158181263	0.3825999999999999	0.20120000000000013	1
801.2216730220565	0.3841999999999999	0.20120000000000013	1
801.2216730220565	0.38663333333333316	0.20320000000000016	1
801.6014252879492	0.38956666666666656	0.28666666666666646	1
801.601379530648	0.38973333333333327	0.35879999999999984	1
801.601379530648	0.3828333333333332	0.36039999999999994	1
801.6966075727149	0.38846666666666657	0.36106666666666654	1
801.6966075727149	0.3874999999999999	1.3415999999999997	1
802.4571639456318	0.3911333333333333	1.5943999999999998	1
802.4571639456318	0.38143333333333324	2.4638666666666666	1
802.8402230535893	0.38816666666666655	2.4997333333333334	1
802.8402236887306	0.38816666666666655	2.5642666666666667	1
802.8402236887306	0.3853999999999999	3.792933333333333	1
803.7017534607251	0.38573333333333326	3.792933333333333	1
803.7017534607251	0.3891333333333333	5.2692	1
803.7000072648368	0.3853333333333332	5.496133333333332	1
803.9911107420942	0.3898666666666666	5.882266666666666	1
803.9911107420942	0.3845333333333332	5.931466666666666	1
804.3745544054249	0.3861333333333333	6.398666666666666	1
804.3745544054249	0.38156666666666655	6.550666666666667	1
804.3757292326319	0.3902999999999999	6.518933333333333	1
804.7568689287642	0.3894999999999999	6.4156	1
804.7568689287642	0.3886999999999999	6.361466666666667	1
804.8556344135392	0.38559999999999994	6.5465333333333335	1
804.8556344135392	0.38559999999999994	6.675599999999999	1
804.8537624213533	0.38346666666666657	6.675599999999999	1
804.8537198741647	0.3907999999999999	6.7656	1
804.8537198741647	0.37593333333333323	6.7248	1
805.332205319072	0.39766666666666656	6.7416	1
805.332205319072	0.3875999999999999	6.875733333333335	1
806.0068985033005	0.3881333333333332	6.919866666666665	1
806.0068598003538	0.3788666666666666	6.84	1
806.0068598003538	0.3827333333333332	6.846133333333333	1
806.4891051336897	0.3907333333333332	6.880799999999999	1
806.4891051336897	0.3844999999999999	6.9184	1
806.9711110726212	0.39419999999999994	7.0149333333333335	1
807.3560515217941	0.39419999999999994	6.995866666666666	1
807.3560515217941	0.3847666666666666	6.44	1
807.3564522337223	0.3832666666666666	6.44	1
807.3564522337223	0.39093333333333324	6.5084	1
807.74451065213	0.38703333333333323	7.022266666666668	1
808.0337830740609	0.3854999999999999	7.0316	1
808.0337830740609	0.3852999999999999	7.0252	1
808.0337887078729	0.38603333333333323	7.011333333333334	1
808.0337887078729	0.38456666666666656	6.979866666666667	1
808.1335755760116	0.3884999999999999	6.700266666666667	1
808.2271919664566	0.3932333333333332	6.586666666666667	1
808.2271919664566	0.37969999999999987	6.731733333333334	1
808.2270535227457	0.37969999999999987	6.7572	1
808.2270535227457	0.38889999999999997	6.428000000000002	1
808.4195740790348	0.3914333333333332	6.428000000000002	1
809.2954928456112	0.3877666666666666	6.324400000000001	1
809.2954928456112	0.38643333333333324	6.440266666666667	1
809.392330240706	0.38133333333333325	6.580266666666668	1
809.392330240706	0.38483333333333325	6.5464	1
809.6843548937421	0.37843333333333323	6.541066666666666	1
810.2663576686533	0.3873666666666665	6.418400000000001	1
810.2663576686533	0.37483333333333324	6.317066666666668	1
810.2669794689003	0.3815333333333332	6.1917333333333335	1
810.2669794689003	0.3927666666666666	6.254666666666667	1
810.6541897475133	0.3927666666666666	6.562666666666667	1
810.6541897475133	0.3783999999999999	6.728000000000001	1
810.8637501931152	0.39403333333333324	6.728000000000001	1
811.1419769551278	0.3834999999999999	6.585733333333334	1
811.1419769551278	0.3832999999999999	6.856533333333333	1
811.4349090628425	0.39439999999999986	6.838933333333332	1
811.4349090628425	0.38446666666666657	6.6866666666666665	1
811.4348804294777	0.3891333333333332	6.597600000000001	1
811.5714012092373	0.3929999999999999	6.410666666666668	1
811.5714012092373	0.39179999999999987	6.1748	1
811.876024979586	0.3835333333333332	6.4005333333333345	1
811.876024979586	0.39116666666666655	6.4328	1
811.8763707822484	0.39116666666666655	6.526533333333333	1
811.9235816256939	0.38696666666666657	6.586666666666667	1
811.9235816256939	0.3890999999999999	6.586666666666667	1
812.7057977012292	0.3883999999999999	6.603066666666666	1
812.7057977012292	0.3847999999999999	6.519333333333334	1
813.0548766033361	0.38856666666666656	6.4690666666666665	1
813.096220176118	0.3817666666666666	6.530933333333334	1
813.096220176118	0.38169999999999993	6.344	1
813.4440817411177	0.3956333333333332	6.329733333333333	1
813.4440817411177	0.38893333333333324	6.1121333333333325	1
813.4453970567499	0.38816666666666655	6.0516	1
813.980036551875	0.38289999999999985	6.367733333333334	1
813.980036551875	0.38289999999999985	6.4216	1
814.0762986784372	0.3918666666666666	6.385733333333334	1
814.0762986784372	0.3873999999999999	6.385733333333334	1
814.3737853707232	0.39199999999999996	6.305733333333333	1
814.7226524253297	0.38629999999999987	6.161066666666667	1
814.7226524253297	0.3815999999999999	6.2442666666666655	1
814.767389529527	0.3799666666666666	6.316533333333333	1
814.767389529527	0.3843999999999999	6.4512	1
815.1149300765571	0.38113333333333327	6.605333333333334	1
815.1159090568063	0.38756666666666656	6.588666666666668	1
815.1159090568063	0.39069999999999994	6.548	1
815.2604641645011	0.3938666666666666	6.507199999999999	1
815.2604641645011	0.39003333333333323	6.467066666666667	1
815.2621604609598	0.39003333333333323	6.3176000000000005	1
815.4149552324856	0.38126666666666653	6.28	1
815.4149552324856	0.3945333333333333	6.28	1
816.2496724019853	0.39003333333333323	6.428666666666667	1
816.2496724019853	0.3922333333333332	6.408400000000001	1
816.543490542292	0.3936333333333332	6.609333333333334	1
817.3325888115178	0.38416666666666655	6.5668	1
817.3325888115178	0.3949666666666666	6.536533333333335	1
817.3369818088214	0.38869999999999993	6.407866666666667	1
817.3369818088214	0.3878333333333332	6.395600000000001	1
817.6334982851157	0.3919999999999999	6.522666666666667	1
817.633456673315	0.39206666666666656	6.5216	1
817.633456673315	0.39206666666666656	6.5228	1
818.3218510297537	0.38346666666666657	6.371866666666668	1
818.3218510297537	0.3879999999999999	6.371866666666668	1
818.6249303613511	0.3923999999999999	6.3466666666666685	1
818.6222081226348	0.3873999999999999	6.359066666666668	1
818.6222081226348	0.3825666666666666	6.360933333333334	1
818.9255894687318	0.38829999999999987	6.346133333333333	1
818.9255894687318	0.3836333333333332	6.490933333333333	1
818.9747031066863	0.3894333333333332	6.390400000000001	1
819.8222510344171	0.39643333333333325	6.679866666666666	1
819.8222510344171	0.3907333333333332	6.696933333333333	1
819.8223762900199	0.39226666666666654	6.6929333333333325	1
819.8223762900199	0.39226666666666654	6.685599999999999	1
820.6178486187856	0.3888999999999999	6.683466666666667	1
820.6208297708295	0.38853333333333323	6.683466666666667	1
820.6208297708295	0.3874333333333332	6.6828	1
821.1150236932127	0.3855999999999999	6.917733333333333	1
821.1150236932127	0.3822666666666666	6.920799999999999	1
821.1176144287205	0.38133333333333325	6.962666666666667	1
821.5161007036098	0.38083333333333325	6.771466666666667	1
821.5161007036098	0.39529999999999993	6.803866666666666	1
821.9197304329714	0.38446666666666657	6.8984	1
821.9197304329714	0.3928666666666666	6.962533333333334	1
822.2209398807732	0.3878999999999999	6.938933333333333	1
822.2209398807732	0.3827999999999999	6.937733333333332	1
822.2721823513391	0.3827999999999999	6.8679999999999986	1
822.2721823513391	0.3911333333333333	6.8679999999999986	1
822.2721823513391	0.3877333333333332	6.698266666666667	1
822.4732325892611	0.38283333333333325	6.726666666666667	1
822.4732325892611	0.38973333333333327	6.993866666666667	1
822.7218490160799	0.3831333333333332	7.299066666666666	1
823.5267783492487	0.39616666666666656	7.241466666666667	1
823.5267783492487	0.39026666666666654	7.1868	1
823.5286401862882	0.39223333333333327	7.198266666666665	1
823.5286401862882	0.3821999999999999	7.180533333333333	1
824.0319994177108	0.3898333333333332	7.2257333333333325	1
824.3334147914953	0.3949999999999999	7.173333333333332	1
824.3334147914953	0.3949999999999999	7.222933333333334	1
824.3847524697222	0.3897333333333332	7.222933333333334	1
824.3847524697222	0.3805333333333332	7.255866666666668	1
824.7873909380842	0.3886333333333333	7.257999999999999	1
824.7864050850922	0.3913666666666666	7.241599999999998	1
824.7864050850922	0.3875999999999999	7.252133333333333	1
825.3958541738464	0.38569999999999993	7.197733333333332	1
825.3958541738464	0.39083333333333325	7.189733333333334	1
825.5979205932168	0.40329999999999994	7.1609333333333325	1
825.6990968218116	0.39106666666666656	7.03	1
825.6990968218116	0.3956999999999999	7.175733333333333	1
825.7997577099381	0.3956999999999999	7.177066666666667	1
825.7997577099381	0.3957333333333332	7.319066666666666	1
826.1022510060109	0.39219999999999994	7.319066666666666	1
826.1022606114326	0.3995333333333332	7.237733333333332	1
826.1022606114326	0.39636666666666653	7.2485333333333335	1
826.1022606114326	0.3842666666666666	7.1732000000000005	1
826.1022606114326	0.3870666666666666	7.235333333333333	1
826.9147195540722	0.38656666666666656	7.2481333333333335	1
827.1561443377894	0.38476666666666653	7.1862666666666675	1
827.1561443377894	0.3940666666666665	7.278266666666667	1
827.7814784943133	0.3942666666666666	7.317333333333333	1
827.7814784943133	0.3797333333333332	7.2056	1
827.8256932595044	0.3797333333333332	7.171466666666666	1
827.8256932595044	0.3871333333333332	7.125066666666666	1
828.0313488245347	0.3959666666666665	7.125066666666666	1
828.5396292824291	0.3947333333333332	7.069866666666667	1
828.5396292824291	0.3850333333333332	7.0902666666666665	1
828.6426983064323	0.3942666666666666	7.181199999999999	1
828.6426983064323	0.38483333333333325	7.218533333333333	1
828.6423752375504	0.39766666666666656	7.522399999999999	1
829.2517339843441	0.38343333333333324	7.652266666666666	1
829.2517339843441	0.39566666666666656	7.488133333333332	1
829.4569570296806	0.38666666666666655	7.2565333333333335	1
829.4569570296806	0.3887999999999999	7.1866666666666665	1
829.4572363335878	0.3887999999999999	7.222133333333333	1
829.8655005517442	0.3946999999999999	7.470533333333333	1
829.8655005517442	0.3889999999999999	7.470533333333333	1
829.8643928951681	0.39306666666666656	7.599199999999999	1
829.8643928951681	0.39019999999999994	7.7692000000000005	1
829.9683018285552	0.3890999999999999	7.767866666666666	1
830.3784589946775	0.3831666666666666	7.500799999999999	1
830.3784589946775	0.39236666666666653	7.816266666666666	1
830.4781424292842	0.3848999999999999	7.535333333333333	1
830.4781424292842	0.3824666666666666	7.436666666666665	1
830.8344817269594	0.3814999999999999	7.557866666666666	1
830.8344817269594	0.3917333333333332	7.56	1
831.2992929377136	0.3917333333333332	7.207466666666666	1
831.7083376292086	0.3954666666666666	7.448799999999999	1
831.7083376292086	0.3921999999999999	7.448799999999999	1
831.7101335906079	0.3890333333333333	7.534133333333332	1
831.7101335906079	0.38973333333333327	7.491466666666665	1
832.1234186680362	0.38943333333333324	7.346000000000001	1
832.1234186680362	0.39286666666666664	7.3002666666666665	1
832.1234186680362	0.38929999999999987	7.3953333333333315	1
832.6342439539187	0.39203333333333323	7.294533333333332	1
832.6342439539187	0.3997999999999999	7.404399999999999	1
832.9951854930688	0.38693333333333324	7.374266666666665	1
833.405880516472	0.3941333333333332	7.252400000000001	1
833.405880516472	0.3941333333333332	7.213866666666666	1
833.4059422949717	0.40106666666666657	7.218933333333334	1
833.4059422949717	0.3861999999999999	7.218933333333334	1
833.9207669217853	0.39849999999999985	7.274666666666666	1
834.2328722208665	0.3975999999999999	7.134666666666665	1
834.2328722208665	0.3914666666666666	7.198399999999999	1
834.3361968933738	0.39886666666666654	7.116666666666666	1
834.3361968933738	0.38766666666666655	7.197866666666665	1
834.7482662602314	0.3924333333333332	7.215199999999999	1
835.2668128437024	0.4114666666666666	7.438399999999999	1
835.2668128437024	0.4099999999999999	7.4930666666666665	1
835.4216189132987	0.4067333333333332	7.135599999999999	1
835.4216189132987	0.4067333333333332	7.133333333333334	1
835.6803637818816	0.41869999999999985	7.139733333333334	1
835.6803637818816	0.4191	7.139733333333334	1
836.0420973298855	0.42919999999999986	7.003466666666666	1
836.094848239796	0.4418333333333332	7.053866666666666	1
836.094848239796	0.4560333333333331	7.1532	1
836.874305069041	0.47386666666666655	7.3332	1
836.874305069041	0.4728333333333332	7.379466666666666	1
837.031408158419	0.5076333333333332	7.435066666666665	1
837.0297757950332	0.4972333333333332	7.481333333333332	1
837.0297757950332	0.5189666666666666	7.535866666666666	1
837.3441927459769	0.5205	7.574399999999999	1
837.3441927459769	0.5205	7.5532	1
837.6547323820813	0.5365333333333333	7.531999999999998	1
837.8128419178786	0.5623333333333332	7.531999999999998	1
837.8128419178786	0.5809666666666665	7.3704	1
838.2310727074695	0.5841333333333334	7.285466666666666	1
838.2310727074695	0.6135333333333333	7.273866666666666	1
838.2803314782128	0.6161333333333332	7.2585333333333315	1
838.2803314782128	0.6364999999999998	7.224799999999998	1
838.5902990491327	0.6701333333333332	7.271466666666665	1
838.7005217617781	0.7076333333333332	7.401066666666666	1
838.7005217617781	0.7292666666666666	7.350933333333333	1
839.167271278897	0.7471999999999999	7.399333333333332	1
839.167271278897	0.7736666666666665	7.510533333333333	1
839.6246573669147	0.7736666666666665	7.309066666666666	1
839.5329196224084	0.7879666666666666	7.309066666666666	1
839.5329196224084	0.7882333333333332	7.322399999999999	1
839.8475160171415	0.7880333333333333	7.2707999999999995	1
839.8475160171415	0.8472333333333332	7.312533333333334	1
840.4734336964647	0.9674666666666667	7.303466666666666	1
842.2829484119709	0.9848333333333333	7.314266666666666	1
842.2829484119709	1.0594	7.165866666666666	1
840.8972271852789	1.0577666666666665	7.017999999999999	1
840.8972271852789	1.0765333333333333	7.142933333333334	1
841.0051333874569	1.1110666666666664	7.382666666666665	1
841.0051333874569	1.1110666666666664	7.3591999999999995	1
841.3168387805053	1.1520333333333332	6.970266666666666	1
841.5690936502104	1.1524666666666665	6.970266666666666	1
841.5690936502104	1.1750666666666667	6.9332	1
841.4864562813959	1.2231999999999998	6.8369333333333335	1
841.4864562813959	1.2424666666666666	6.662933333333334	1
841.8432407457633	1.2928	6.834399999999999	1
842.15770680805	1.3727333333333331	6.899866666666667	1
842.15770680805	1.4535333333333331	6.87	1
842.4753627749625	1.5129	6.86	1
842.4753627749625	1.6125999999999998	6.8572	1
842.8948554666943	1.7794999999999996	7.053733333333333	1
843.1038748662551	1.7794999999999996	7.234666666666666	1
843.1038748662551	1.8864333333333332	7.172	1
843.1060224153597	1.9495999999999996	7.172	1
843.4268090337778	2.157866666666666	7.378933333333334	0.40000000000000013
843.4268090337778	1.577	7.318666666666666	1
843.5315246727262	1.1173666666666666	7.209466666666668	1
844.3288112912944	1.7918999999999998	5.08	1
844.3288112912944	1.8893666666666664	4.375333333333333	1
844.6746334443518	1.7585	3.706	1
844.6746334443518	1.5547999999999997	2.8788	1
844.9013469289912	1.5547999999999997	2.6727999999999996	1
844.9013469289912	1.5041666666666667	2.6727999999999996	1
844.9095216527163	1.4971666666666665	2.614933333333333	1
843.1047837336905	1.9333	7.261199999999999	1
843.1047837336905	1.9333	7.206533333333334	1
842.5781246460663	1.8486666666666665	6.98	1
842.1580516869486	1.6971333333333334	6.98	1
842.1580516869486	1.538733333333333	6.838400000000002	1
842.1576881871486	1.4357999999999997	6.803466666666666	1
842.1576881871486	1.4324	6.842933333333334	1
841.5846702797011	1.3617	6.9930666666666665	1
841.5846702797011	1.2877666666666665	6.815066666666667	1
841.6328670715606	1.2379	6.853733333333333	1
841.6083462773979	1.1925999999999999	6.953733333333333	1
841.6083462773979	1.1853333333333333	6.9768	1
841.2141569674715	1.1326666666666665	7.071199999999999	1
841.2141569674715	1.1326666666666665	7.107599999999999	1
840.8931644027117	1.055333333333333	7.130933333333332	1
840.8933018106437	1.0480666666666665	7.130933333333332	1
840.8933018106437	1.0758999999999999	7.147599999999999	1
840.4780219097214	1.0434333333333332	7.2356	1
840.4780219097214	0.9871666666666666	7.3275999999999994	1
840.4736053160102	0.9687333333333333	7.322266666666666	1
839.5329116731705	0.9110666666666665	7.231733333333332	1
839.5329116731705	0.8050333333333333	7.406666666666666	1
839.5326708522781	0.7924333333333332	7.391866666666666	1
839.5326708522781	0.7881333333333332	7.387866666666666	1
839.2194747051118	0.7897333333333332	7.417999999999998	1
839.2194747051118	0.7499666666666666	7.4411999999999985	1
839.0645951572254	0.7499666666666666	7.300533333333333	1
838.701092615229	0.7308999999999999	7.300533333333333	1
838.701092615229	0.6864333333333332	7.207599999999999	1
838.2802238251913	0.6601999999999999	7.070399999999999	1
838.2802238251913	0.6211666666666665	7.234933333333333	1
837.9683168562874	0.6303	7.4677333333333324	1
837.654997795004	0.6010333333333333	7.347599999999999	1
837.654997795004	0.575	7.4688	1
837.4973956436701	0.5540333333333333	7.414133333333333	1
837.4973956436701	0.5267333333333333	7.3435999999999995	1
837.3422750098396	0.5256666666666666	7.188399999999999	1
837.3422750098396	0.5105999999999998	7.2272	1
837.2395313629096	0.5105999999999998	7.355199999999998	1
837.0277852930449	0.5043333333333333	7.418799999999999	1
837.0277852930449	0.49636666666666657	7.418799999999999	1
837.0278137850702	0.49936666666666646	7.528933333333333	1
837.0278137850702	0.49606666666666654	7.457066666666666	1
836.5633812266656	0.48413333333333325	7.392266666666664	1
836.3061407740804	0.4725999999999999	7.4167999999999985	1
836.3061407740804	0.4599999999999999	7.516933333333333	1
835.9931708194682	0.45359999999999984	7.375466666666664	1
835.9931708194682	0.43026666666666663	7.427866666666666	1
835.681069897538	0.41323333333333323	7.2485333333333335	1
835.681069897538	0.4071333333333332	7.077733333333333	1
835.4216166661512	0.41836666666666655	7.0371999999999995	1
835.2654834706115	0.41836666666666655	7.088	1
835.2654834706115	0.4068333333333332	7.088	1
834.644849815556	0.40636666666666654	7.2387999999999995	1
834.644849815556	0.4025999999999999	7.261333333333332	1
834.3362190660814	0.4009999999999999	7.3152	1
834.0269261791898	0.38999999999999985	7.412533333333334	1
834.0269261791898	0.3998333333333332	7.501066666666666	1
833.8730837134988	0.39276666666666654	7.436666666666665	1
833.8730837134988	0.4067333333333332	7.370799999999999	1
833.4070485284636	0.38856666666666656	7.3804	1
833.4070485284636	0.39156666666666656	7.304266666666666	1
833.4070485284636	0.3823999999999999	7.334533333333334	1
833.3572766139243	0.3823999999999999	7.281866666666667	1
833.3572766139243	0.3897999999999999	7.281866666666667	1
832.9960463191672	0.3792666666666666	7.175600000000001	1
832.9960463191672	0.3879999999999999	7.273866666666666	1
832.632136915053	0.39899999999999985	7.234533333333332	1
832.1198794107236	0.39689999999999986	7.611599999999998	1
832.1198794107236	0.39619999999999983	7.532133333333333	1
831.7112083840303	0.38589999999999985	7.353466666666667	1
831.7112083840303	0.39036666666666664	7.455733333333333	1
831.7110599644718	0.3878333333333332	7.396533333333333	1
831.2989772083147	0.39656666666666657	7.378133333333333	1
831.2989772083147	0.38766666666666655	7.290933333333332	1
830.936001693767	0.38766666666666655	7.4942666666666655	1
830.936001693767	0.3902333333333332	7.4942666666666655	1
830.4792864131894	0.39809999999999995	7.513333333333334	1
830.3775620394852	0.3866999999999999	7.474266666666666	1
830.3775620394852	0.39173333333333327	7.583866666666666	1
829.967808613462	0.3976333333333333	7.777466666666667	1
829.967808613462	0.39126666666666654	7.529466666666667	1
829.864452265617	0.38679999999999987	7.679066666666667	1
829.557562777923	0.40139999999999987	7.7132000000000005	1
829.557562777923	0.3896999999999999	7.714133333333333	1
829.4131264967459	0.39616666666666656	7.7030666666666665	1
829.4131264967459	0.38373333333333326	7.36	1
829.4561686298787	0.38373333333333326	7.314933333333333	1
828.7445533332251	0.39866666666666656	7.512533333333334	1
828.7445533332251	0.3908999999999999	7.512533333333334	1
828.7445675892919	0.38679999999999987	7.482533333333333	1
828.7445675892919	0.3941333333333332	7.514533333333333	1
828.8739115906113	0.3888666666666666	7.434399999999999	1
828.027921984682	0.37696666666666656	7.315733333333332	1
828.027921984682	0.3899666666666666	7.344799999999998	1
827.8297077644479	0.38833333333333325	7.2432	1
827.8297077644479	0.39016666666666655	7.247066666666666	1
827.828489573561	0.3938333333333332	7.253199999999999	1
827.828489573561	0.38599999999999995	7.269199999999999	1
827.3172774922765	0.38599999999999995	7.183066666666667	1
827.0123095794102	0.3830333333333332	7.015866666666668	1
827.0123095794102	0.39193333333333324	7.015866666666668	1
826.9144648400777	0.3904666666666666	7.030133333333334	1
826.9144648400777	0.3932999999999999	7.049333333333332	1
826.1010884517178	0.39216666666666655	7.166933333333333	1
826.1011030581964	0.39059999999999995	7.2493333333333325	1
826.1011030581964	0.3920999999999999	7.4105333333333325	1
825.6974143798833	0.38646666666666657	7.419066666666666	1
825.6974143798833	0.3797333333333332	7.0916	1
825.6974171648358	0.38973333333333327	7.034399999999999	1
825.3418754425032	0.3852333333333332	6.9193333333333324	1
825.3418754425032	0.3852333333333332	7.1384	1
824.7889350229825	0.3904999999999999	7.134666666666665	1
824.7889350229825	0.38896666666666657	7.134666666666665	1
819.8584989273058	0.3906333333333332	7.255599999999999	1
824.3857527016509	0.3928666666666666	6.9585333333333335	1
824.3857527016509	0.3937333333333332	7.154799999999999	1
824.2921213972372	0.38076666666666653	7.1302666666666665	1
824.2921213972372	0.38466666666666655	7.307733333333334	1
824.0272826905509	0.38446666666666657	7.474133333333333	1
823.5286464524967	0.39583333333333326	7.421599999999999	1
823.5286464524967	0.3929666666666665	7.196400000000001	1
823.4763663635669	0.39576666666666654	7.101599999999999	1
823.4763663635669	0.39576666666666654	7.1324000000000005	1
822.7235943290862	0.39276666666666654	7.0464	1
822.5156302961708	0.38659999999999994	7.0464	1
822.5156302961708	0.3960999999999999	6.955733333333333	1
822.2191458220713	0.39116666666666655	7.070666666666666	1
822.2191458220713	0.3903333333333332	7.0360000000000005	1
822.2192314825166	0.38796666666666657	7.000666666666666	1
821.8711361728372	0.3870999999999999	6.917999999999998	1
821.8711361728372	0.38599999999999995	6.777333333333333	1
821.8712432424933	0.3964666666666666	6.7588	1
821.8712432424933	0.3879999999999999	6.706666666666665	1
821.1174695632789	0.3865333333333333	6.7787999999999995	1
821.1194316040821	0.3865333333333333	6.9159999999999995	1
821.1194316040821	0.3902333333333332	6.914	1
821.1186336179021	0.37983333333333325	6.914	1
821.1186336179021	0.3847333333333333	6.823466666666667	1
820.6167975955485	0.3913666666666666	6.677733333333333	1
820.6167975955485	0.3755666666666666	6.568666666666667	1
820.6167998965537	0.3831999999999999	6.5188	1
819.8203254132482	0.3921666666666666	6.5057333333333345	1
819.8203254132482	0.3939666666666666	6.7048000000000005	1
818.9757294549296	0.3802666666666666	6.736266666666667	1
818.9757294549296	0.3936333333333332	6.2965333333333335	1
818.9754746682511	0.38256666666666655	6.382133333333335	1
818.6242166103444	0.38256666666666655	6.2795999999999985	1
818.6242166103444	0.38806666666666656	6.222133333333333	1
818.6231252649101	0.39203333333333323	6.222133333333333	1
818.6231252649101	0.3941333333333333	6.279466666666665	1
818.3251592242084	0.38796666666666657	6.356133333333335	1
817.7302292549941	0.38843333333333324	6.692266666666667	1
817.7302292549941	0.3787999999999999	6.410133333333334	1
817.6343841284146	0.3893666666666666	6.516533333333333	1
817.6343841284146	0.3758999999999999	6.678933333333333	1
817.4338118182068	0.38546666666666657	6.567733333333334	1
816.8407183772916	0.3839999999999999	6.514666666666667	1
816.8407183772916	0.39153333333333323	6.477333333333333	1
816.5423629267457	0.39153333333333323	6.460799999999999	1
816.5423629267457	0.3863666666666666	6.554800000000001	1
816.2447437846392	0.3792666666666666	6.554800000000001	1
815.4135397216907	0.38893333333333324	6.276400000000001	1
815.4135397216907	0.39526666666666654	6.254133333333334	1
815.2575204491973	0.38623333333333326	6.4278666666666675	1
815.2575204491973	0.40266666666666656	6.5172	1
815.1172911716486	0.3914666666666666	6.597866666666667	1
815.1172911716486	0.40343333333333325	6.6786666666666665	1
815.1173578866415	0.38829999999999987	6.691466666666667	1
814.7663413114466	0.3902999999999999	6.6552	1
814.7663413114466	0.38746666666666657	6.539866666666667	1
814.7671763044794	0.3907333333333332	6.5216	1
814.7671763044794	0.3907333333333332	6.234	1
814.0759903360517	0.3896666666666666	6.234	1
813.9816257096036	0.3897333333333332	6.295466666666667	1
813.9816257096036	0.39166666666666655	6.3921333333333346	1
813.4452013609433	0.3785999999999999	6.376533333333335	1
813.4452013609433	0.3815999999999999	6.096133333333333	1
813.4452150057232	0.3925999999999999	5.923333333333333	1
813.1489805221771	0.39356666666666656	5.969866666666666	1
813.1489805221771	0.38079999999999986	6.211333333333334	1
813.0495356935127	0.3907333333333332	6.398800000000001	1
813.0495356935127	0.39079999999999987	6.286666666666667	1
812.8000933477352	0.39103333333333323	6.2257333333333325	1
811.9217025655751	0.39103333333333323	6.2736	1
811.9217025655751	0.39833333333333326	6.3482666666666665	1
811.919860995586	0.38379999999999986	6.3482666666666665	1
811.919860995586	0.38396666666666657	6.387066666666668	1
811.828829404599	0.3861333333333333	6.465199999999999	1
811.828829404599	0.3920999999999999	6.535466666666667	1
811.527218888853	0.38996666666666663	6.381466666666667	1
811.2962831254258	0.3793666666666666	6.514133333333333	1
811.2962831254258	0.3928999999999999	6.644266666666667	1
811.337625918354	0.3823999999999999	6.768133333333333	1
811.337625918354	0.3916999999999999	6.807599999999999	1
811.0449770644503	0.39869999999999994	6.486533333333333	1
810.7491304961646	0.39869999999999994	6.491733333333333	1
810.7491304961646	0.3947333333333332	6.565466666666667	1
810.6080503331128	0.3886333333333333	6.565466666666667	1
810.6080503331128	0.38993333333333324	6.516	1
809.7783945419253	0.3822999999999999	6.431066666666668	1
809.7802355599355	0.37799999999999995	6.564	1
809.7802355599355	0.3970999999999999	6.6	1
809.3921663587064	0.3842666666666666	6.597066666666667	1
809.3921663587064	0.38293333333333324	6.408000000000001	1
809.3921663587064	0.3949333333333332	6.408000000000001	1
808.4237235418087	0.3817333333333332	6.372533333333332	1
808.4237235418087	0.3932333333333332	6.509333333333334	1
808.2253063107107	0.3932333333333332	6.874799999999999	1
808.2253063107107	0.3858999999999999	6.918399999999998	1
808.2253194584132	0.4000333333333332	6.918399999999998	1
808.0346128366331	0.38093333333333323	6.904533333333332	1
808.0346128366331	0.3871666666666666	6.8316	1
807.7452952907848	0.4002333333333332	6.848533333333333	1
807.7452952907848	0.37629999999999986	6.8564	1
807.4499202269039	0.3821333333333332	6.873466666666666	1
807.4499202269039	0.38953333333333323	6.215333333333333	1
807.3548662452193	0.4037333333333333	6.1870666666666665	1
806.9709086374594	0.38966666666666655	7.0061333333333335	1
806.9709086374594	0.3848333333333332	7.033733333333333	1
806.1979483987643	0.37396666666666656	6.845733333333334	1
806.1979483987643	0.37396666666666656	6.7598666666666665	1
806.1981655127236	0.3974666666666666	6.7598666666666665	1
806.0090722409625	0.39819999999999994	6.7504	1
806.0090722409625	0.3935666666666666	6.715466666666666	1
805.2375806443243	0.4000999999999999	6.7388	1
805.2375806443243	0.38399999999999995	6.566533333333333	1
804.8535596220272	0.39076666666666654	6.697866666666666	1
804.8538514862054	0.3924999999999999	6.7401333333333335	1
804.8538514862054	0.3974666666666666	6.7112	1
804.8536688462029	0.38876666666666654	6.679333333333332	1
804.8536688462029	0.3848999999999999	6.550133333333333	1
804.7566323286857	0.37543333333333323	6.351999999999999	1
804.5620703050213	0.37543333333333323	6.216266666666667	1
804.5620703050213	0.39366666666666655	6.461866666666666	1
804.3743551442515	0.3878666666666665	6.461866666666666	1
804.3743551442515	0.4017999999999999	6.787733333333334	1
803.9898037242982	0.3833999999999999	6.595333333333333	1
803.700007382077	0.3991333333333333	5.858933333333333	1
803.700007382077	0.39053333333333323	5.532133333333333	1
803.607367366315	0.39076666666666654	5.455733333333333	1
803.607367366315	0.3902999999999999	4.306266666666667	1
802.8421128221216	0.3844666666666665	3.7836	1
802.8420073035992	0.3902333333333332	2.986933333333333	1
802.8420073035992	0.39329999999999987	2.561466666666666	1
802.4605523326238	0.3949666666666666	2.0291999999999994	1
802.4605523326238	0.3949666666666666	1.5330666666666664	1
801.6034116449383	0.38663333333333316	1.5330666666666664	1
801.6034116449383	0.38329999999999986	0.3950666666666666	1
801.6043351366761	0.3960333333333332	0.3709333333333332	1
801.4139762141572	0.38599999999999995	0.3605333333333332	1
801.4139762141572	0.39816666666666656	0.32639999999999986	1
801.2215545872343	0.3832999999999999	0.2722666666666665	1
801.2215545872343	0.3900999999999999	0.20040000000000016	1
801.2205602559109	0.3916999999999999	0.2001333333333335	1
801.1269416785539	0.38416666666666655	0.2001333333333335	1
801.1269416785539	0.3879666666666665	0.19986666666666683	1
801.1269027273232	0.3879666666666665	0.19920000000000018	1
801.1269027273232	0.38766666666666655	0.08866666666666674	1
800.462261940128	0.3877333333333332	0.08866666666666674	1
800.368531805641	0.3838666666666666	0.040000000000000036	1
800.368531805641	0.39229999999999987	0.040000000000000036	1
