wavelength(nm)	flourescence PMT(V)	ti_saph Power (V)	Gain (V)
800.3702036149521	0.3873999999999999	0.040000000000000036	1
800.3702036149521	0.39173333333333327	0.040000000000000036	1
800.3692690331538	0.3971999999999999	0.040000000000000036	1
800.3692690331538	0.3878999999999999	0.040000000000000036	1
800.8445001846978	0.3949666666666666	0.0402666666666667	1
800.8445001846978	0.38996666666666663	0.11853333333333343	1
800.9123011137937	0.39316666666666655	0.17000000000000018	1
800.9123011137937	0.3853666666666666	0.19800000000000015	1
801.2255915806894	0.38873333333333326	0.19973333333333354	1
801.2255915806894	0.3868666666666666	0.2001333333333335	1
801.2235773526953	0.3894999999999999	0.2176000000000001	1
801.2235773526953	0.3835999999999999	0.2771999999999998	1
801.4165272144932	0.3835999999999999	0.2795999999999998	1
801.606754331485	0.37766666666666654	0.3034666666666665	1
801.606754331485	0.39453333333333324	0.3034666666666665	1
801.7435200061085	0.40189999999999987	0.3605333333333332	1
801.7435200061085	0.3887999999999999	0.3682666666666665	1
802.7499815405804	0.39576666666666654	1.4676	1
802.7499815405804	0.38753333333333323	2.012933333333333	1
802.7511183869211	0.3957333333333332	2.0843999999999996	1
802.7511183869211	0.3991999999999999	2.1870666666666665	1
803.2277881492079	0.3801333333333332	3.6464000000000003	1
803.2277881492079	0.3913666666666666	3.778400000000001	1
803.7065419707703	0.3847999999999999	4.807733333333333	1
803.7065419707703	0.3847999999999999	5.330933333333332	1
803.9920622488228	0.3938666666666666	5.5666666666666655	1
803.9920622488228	0.3886333333333333	5.5666666666666655	1
804.376761505165	0.3963999999999999	5.775866666666666	1
804.376761505165	0.39276666666666654	6.290266666666667	1
804.5100797214984	0.3845999999999999	6.3644000000000025	1
804.5100797214984	0.39903333333333324	6.405866666666667	1
804.4690577832935	0.3825333333333332	6.3928	1
804.4690577832935	0.38566666666666655	6.207333333333334	1
804.8541630391236	0.3857666666666666	6.363466666666668	1
804.8542783035911	0.3909666666666665	6.358533333333335	1
804.8542783035911	0.3870999999999999	6.3340000000000005	1
808.9013281265129	0.39189999999999986	6.304666666666667	1
808.9013281265129	0.39189999999999986	6.432933333333334	1
806.0099358562554	0.3901999999999999	6.432933333333334	1
806.0099358562554	0.39016666666666655	6.7321333333333335	1
806.1056044691016	0.39813333333333323	6.724266666666667	1
806.1056044691016	0.39019999999999994	6.6152	1
806.3972758830663	0.38546666666666657	6.5924000000000005	1
806.3972758830663	0.3858999999999999	6.269333333333333	1
806.8773364239249	0.40126666666666655	6.045599999999999	1
806.8773364239249	0.38416666666666655	6.089733333333333	1
807.2645856138474	0.4007666666666666	6.695866666666667	1
807.2645856138474	0.3913666666666666	6.553866666666666	1
807.3598364985424	0.38409999999999994	6.385866666666667	1
807.3598364985424	0.38409999999999994	6.381333333333333	1
807.7457689725225	0.39153333333333323	6.736666666666666	1
807.7457689725225	0.3972999999999999	6.736666666666666	1
808.0394676978675	0.39223333333333327	6.6942666666666675	1
808.0394676978675	0.39706666666666657	6.693466666666667	1
808.0395981869073	0.3904666666666665	6.627066666666666	1
808.2274256767097	0.38366666666666654	6.312666666666667	1
808.2274256767097	0.38899999999999985	6.0884	1
808.2316198856491	0.39256666666666656	6.196133333333333	1
808.2316198856491	0.3802333333333332	6.353066666666668	1
808.4243885355219	0.3882333333333332	6.194933333333333	1
808.4243885355219	0.39356666666666656	6.3537333333333335	1
808.4243885355219	0.39356666666666656	6.407200000000001	1
808.4243885355219	0.3901333333333333	6.280399999999999	1
809.78308977746	0.38323333333333326	6.280399999999999	1
809.78308977746	0.3821999999999999	6.1788	1
809.783024938125	0.38693333333333324	6.121466666666667	1
809.783024938125	0.3938999999999999	6.125733333333335	1
810.4642435747631	0.3868666666666666	6.231333333333334	1
810.4642435747631	0.38056666666666655	6.306000000000001	1
810.6583709252345	0.3822999999999999	6.644933333333333	1
810.6583709252345	0.3830999999999999	6.6277333333333335	1
811.0457297485657	0.3902999999999999	6.229733333333334	1
811.3436018382271	0.38406666666666656	6.4064000000000005	1
811.3436018382271	0.38406666666666656	6.440800000000001	1
811.298996931226	0.4043333333333332	6.4312000000000005	1
811.298996931226	0.3924999999999999	6.4312000000000005	1
811.5328448070486	0.3926666666666666	5.990266666666667	1
811.5328448070486	0.3943666666666666	5.9452	1
811.9246750669673	0.3816666666666666	6.127066666666667	1
811.9246750669673	0.3914333333333332	6.2436	1
811.9244973994391	0.38956666666666656	6.4165333333333345	1
811.9244973994391	0.3819999999999999	6.384400000000001	1
811.9236134677953	0.39076666666666654	6.357200000000001	1
811.9236134677953	0.3928999999999999	6.1692	1
812.7096551232084	0.3877666666666666	6.116533333333334	1
812.7096551232084	0.3877666666666666	6.1458666666666675	1
813.0551377011165	0.3876333333333332	6.173466666666666	1
813.0551377011165	0.39483333333333326	6.173466666666666	1
813.4931973279824	0.3942333333333332	6.166266666666667	1
813.4931973279824	0.3886333333333333	6.175333333333333	1
813.9844913691334	0.39399999999999985	6.1668	1
813.9844913691334	0.3858666666666665	6.269733333333333	1
813.9844913691334	0.3931666666666666	6.1946666666666665	1
814.2337770081152	0.38296666666666657	6.0465333333333335	1
814.2337770081152	0.3920999999999999	5.7684	1
814.7713197380189	0.3906333333333332	6.269066666666666	1
814.7713197380189	0.39173333333333327	6.209999999999999	1
814.7680779721916	0.39173333333333327	6.2013333333333325	1
814.7680779721916	0.3877333333333332	6.295733333333334	1
815.261640659484	0.37833333333333324	6.295733333333334	1
815.261640659484	0.39116666666666655	6.3824000000000005	1
815.2617343769623	0.38906666666666656	6.362666666666668	1
815.2617343769623	0.3855666666666666	6.264133333333333	1
815.2596913889028	0.39636666666666653	6.175333333333334	1
815.2596913889028	0.40136666666666654	6.089733333333333	1
815.5597789223575	0.3903999999999999	6.043066666666667	1
815.5597789223575	0.3857666666666666	5.996133333333334	1
816.2528073787404	0.3924333333333332	6.073733333333333	1
816.2528073787404	0.38956666666666656	6.265066666666667	1
816.8416470893022	0.38956666666666656	6.422266666666667	1
816.8416470893022	0.3927333333333332	6.400800000000001	1
816.8430404657423	0.3953999999999999	6.400800000000001	1
817.5916172247847	0.38683333333333325	6.317866666666666	1
817.5916172247847	0.3932333333333332	6.315866666666667	1
817.5894129862262	0.3993666666666666	6.377600000000001	1
817.5894129862262	0.39093333333333324	6.374933333333335	1
817.7340318311432	0.3959666666666665	6.2912	1
817.7340318311432	0.3915333333333333	6.478133333333333	1
818.6244814922801	0.3923999999999999	6.2725333333333335	1
818.6244814922801	0.37893333333333323	6.212933333333334	1
818.6254217110702	0.3871333333333332	6.181866666666666	1
818.6254217110702	0.3871333333333332	6.139733333333334	1
819.3819789417963	0.3937333333333332	6.2656	1
819.3819789417963	0.39179999999999987	6.2656	1
819.3819789417963	0.39086666666666653	6.28	1
819.3819789417963	0.38093333333333323	6.302533333333333	1
819.8236764088896	0.39193333333333324	6.557733333333334	1
819.8236764088896	0.39603333333333324	6.579200000000001	1
820.5230370433849	0.3882333333333332	6.619200000000001	1
820.5230370433849	0.3907333333333332	6.5764000000000005	1
820.6238062110625	0.3821333333333332	6.5367999999999995	1
820.9734301643107	0.3944999999999999	6.534533333333334	1
820.9734301643107	0.38809999999999995	6.695333333333333	1
821.0244026673154	0.38756666666666656	6.6008000000000004	1
821.0244026673154	0.38756666666666656	6.515333333333333	1
821.0244026673154	0.3841999999999999	6.515333333333333	1
821.0244026673154	0.3927999999999999	6.379866666666667	1
821.8249835089953	0.3956333333333332	6.5436	1
821.8249835089953	0.39713333333333317	6.608666666666667	1
822.1774860627276	0.3879333333333333	6.714133333333333	1
822.1774860627276	0.39526666666666654	6.894799999999998	1
822.2241985323552	0.3936999999999999	7.003466666666666	1
822.2241985323552	0.3913999999999999	6.9228000000000005	1
822.3227979471251	0.3921999999999999	6.734933333333333	1
822.3227979471251	0.3890999999999999	6.573733333333334	1
822.5174663910663	0.3890999999999999	6.697866666666667	1
822.5174663910663	0.3828666666666665	6.9319999999999995	1
823.526879823209	0.37773333333333325	6.9319999999999995	1
823.526879823209	0.3889999999999999	7.126533333333334	1
823.5262952836896	0.3878666666666665	7.2588	1
823.883963209419	0.3863666666666666	7.249733333333333	1
823.883963209419	0.39926666666666655	7.170799999999999	1
824.3870811343756	0.40186666666666654	7.2768	1
824.3870811343756	0.3849999999999999	7.190133333333333	1
824.3870511141449	0.3954999999999999	6.987333333333333	1
824.3870511141449	0.3861999999999999	6.947866666666665	1
824.69214116672	0.3871333333333332	6.819599999999999	1
824.69214116672	0.3871333333333332	7.121600000000002	1
824.7888241815641	0.39689999999999986	7.064266666666666	1
824.7888241815641	0.3933999999999999	7.064266666666666	1
825.2442573153537	0.3896999999999999	6.814266666666667	1
825.2442573153537	0.38406666666666656	6.883066666666667	1
825.6001057977629	0.3911999999999999	6.948799999999999	1
825.6001057977629	0.3942666666666666	6.928133333333332	1
825.800090082889	0.3942666666666666	6.9665333333333335	1
825.800090082889	0.38273333333333326	7.162533333333334	1
826.1070589148716	0.39543333333333325	7.106000000000001	1
826.1070589148716	0.3978666666666666	7.109333333333334	1
826.4586756193082	0.38673333333333326	7.076933333333333	1
826.9138068834407	0.3891999999999999	7.276533333333333	1
826.9138068834407	0.3891999999999999	7.167733333333333	1
827.0173658946879	0.38969999999999994	7.167733333333333	1
827.0173658946879	0.39103333333333323	6.863999999999999	1
827.7848883573541	0.3891333333333333	7.026933333333333	1
827.7848883573541	0.4051666666666665	7.004533333333332	1
828.0330277902176	0.38356666666666656	6.921999999999998	1
828.0330277902176	0.3853333333333332	6.924933333333334	1
828.0344885835311	0.3798999999999999	7.007199999999999	1
828.0344885835311	0.38633333333333325	7.157333333333333	1
828.9252311593139	0.3954666666666665	7.2649333333333335	1
828.9252311593139	0.40149999999999986	7.120266666666667	1
828.6457008088653	0.38533333333333325	7.057866666666666	1
828.6457008088653	0.38533333333333325	7.046266666666667	1
829.2575323185097	0.3916333333333332	7.148533333333333	1
829.2575323185097	0.3844999999999999	7.148533333333333	1
829.2575509180718	0.38986666666666653	7.190933333333333	1
829.2575509180718	0.3941999999999999	7.255199999999999	1
829.5626765357495	0.3876666666666665	7.35	1
829.5626765357495	0.3876333333333332	7.657733333333332	1
829.8677022341914	0.4025999999999999	7.528933333333333	1
829.8230481069612	0.3939999999999999	7.617733333333333	1
829.8230481069612	0.3906666666666666	7.5448	1
830.4816517860007	0.39226666666666654	7.406266666666665	1
830.4816517860007	0.39626666666666654	7.3094666666666654	1
830.5886806817281	0.39626666666666654	7.3318666666666665	1
830.5886806817281	0.3920999999999999	7.349199999999999	1
831.1462875813174	0.3998999999999999	7.349199999999999	1
831.1462875813174	0.4038333333333332	7.379599999999999	1
831.5128102545868	0.3962333333333332	7.2585333333333315	1
831.5128102545868	0.38576666666666654	7.260933333333332	1
831.5128102545868	0.40363333333333323	7.390533333333333	1
831.5128102545868	0.3962999999999999	7.4	1
832.1240812275752	0.4035666666666666	7.356533333333333	1
832.1240812275752	0.3928333333333332	7.099866666666667	1
832.1243326456911	0.3909999999999999	7.138533333333335	1
832.1243326456911	0.3842666666666666	7.212	1
832.5351933105649	0.4057333333333332	7.2832	1
832.5351933105649	0.4057333333333332	7.211333333333332	1
833.1004512984326	0.4001999999999999	7.211333333333332	1
833.3594744919709	0.39106666666666656	7.111066666666666	1
833.3594744919709	0.3874999999999999	7.236400000000001	1
833.46227388836	0.3834999999999999	7.2416	1
833.46227388836	0.3932999999999999	7.1374666666666675	1
833.8758555600947	0.38653333333333323	7.0649333333333315	1
833.8758555600947	0.3929666666666666	7.0296	1
833.8758764637979	0.38696666666666657	7.030399999999999	1
833.8758764637979	0.3942666666666666	7.151466666666667	1
834.3406139424696	0.3987333333333333	7.378666666666665	1
834.7519192500596	0.3987333333333333	7.396533333333333	1
834.7519192500596	0.40319999999999984	7.271466666666665	1
835.4761568620722	0.3966333333333333	7.271466666666665	1
835.4761568620722	0.4014333333333332	7.114399999999999	1
835.474743205411	0.4211333333333332	7.239333333333333	1
835.474743205411	0.41693333333333327	7.1347999999999985	1
835.6321593795317	0.4116999999999999	7.106266666666667	1
835.6321593795317	0.4273999999999999	7.105066666666667	1
836.0466185575585	0.43419999999999986	7.1808	1
836.5138095113591	0.44059999999999994	7.333866666666666	1
836.5138095113591	0.4609666666666665	7.43	1
836.8260953289004	0.48346666666666654	7.527333333333333	1
836.8260953289004	0.48346666666666654	7.549333333333332	1
836.8263731842835	0.48339999999999983	7.589733333333332	1
836.8263731842835	0.47659999999999986	7.589733333333332	1
837.2426439618897	0.5114666666666665	7.334533333333334	1
837.2426439618897	0.5215333333333333	7.229333333333332	1
837.1987833229101	0.5140666666666666	7.291733333333333	1
837.1987833229101	0.5212666666666664	7.364266666666666	1
837.7608443656485	0.5657	7.182533333333334	1
838.1807452904729	0.5688666666666665	7.096666666666667	1
838.1807452904729	0.6238999999999999	7.490266666666667	1
838.1824692660922	0.6246666666666665	7.525866666666666	1
838.1824692660922	0.6225666666666666	7.525333333333331	1
838.4951174838982	0.6449333333333332	7.487333333333333	1
838.4951174838982	0.6449333333333332	7.371333333333332	1
839.1169703040317	0.6663333333333332	7.371333333333332	1
839.1169703040317	0.7166666666666666	7.380799999999999	1
839.3248219391787	0.7511333333333332	7.498266666666665	1
839.4341494755405	0.7698666666666666	7.396266666666667	1
839.4341494755405	0.7743999999999999	7.334399999999999	1
839.4341356870714	0.7603333333333332	7.19	1
839.4341356870714	0.7637999999999999	7.115866666666667	1
840.3784419154968	0.8201999999999999	7.050133333333333	1
840.3784419154968	0.8726999999999998	7.084933333333334	1
840.6911390803886	1.0113333333333332	7.2132000000000005	1
840.6911390803886	1.0280333333333331	7.210266666666667	1
840.6911893598648	1.0280333333333331	7.126266666666667	1
841.0057829080966	1.0493333333333332	7.126266666666667	1
841.0057829080966	1.0805666666666665	7.252800000000001	1
841.3222843364039	1.1470666666666665	7.504266666666667	1
841.3222843364039	1.1525666666666665	7.407333333333333	1
841.3222207980228	1.1640666666666666	7.043866666666666	1
841.3222207980228	1.1847999999999999	7.020266666666666	1
841.5302600762114	1.2064666666666666	6.947733333333332	1
841.5302600762114	1.2256333333333334	6.691066666666667	1
841.741597735468	1.250433333333333	6.738933333333334	1
841.741597735468	1.3719666666666663	6.972666666666667	1
842.1620303526089	1.3719666666666663	6.829066666666668	1
842.836371157876	1.4763666666666666	6.813333333333333	1
842.836371157876	1.4996666666666665	6.813333333333333	1
843.0058250635689	1.7430666666666665	7.053866666666666	1
843.0058250635689	1.8388333333333333	7.123333333333333	1
843.2595447715606	1.9401666666666666	7.182933333333334	1
843.4261590347836	2.1401	7.402	0.40000000000000013
843.4261590347836	1.3983999999999999	7.3991999999999996	1
843.5749943621477	1.3584999999999998	7.388399999999998	1
843.5749943621477	1.9757666666666664	5.679733333333334	1
844.5884846041051	1.9757666666666664	4.204266666666666	1
844.6970784507541	1.8860666666666666	3.6962666666666664	1
844.6970784507541	1.7672333333333337	3.6962666666666664	1
844.8008046997667	1.6441666666666666	3.191466666666667	1
844.8008046997667	1.5926666666666665	2.9494666666666665	1
844.9101602273568	1.3908666666666667	2.1865333333333337	1
844.9101602273568	1.4167666666666665	2.3343999999999996	1
844.5880836954219	1.6892666666666665	3.2930666666666664	1
844.5880836954219	1.8993	4.092533333333333	1
844.2764087822701	2.1390000000000002	6.3532	0.40000000000000013
843.5348836524795	1.3338999999999999	7.162400000000001	1
843.5348836524795	1.3930999999999998	7.253733333333333	1
843.430145774379	1.3930999999999998	7.4025333333333325	1
843.1547467650117	1.9620666666666664	7.4025333333333325	1
843.1547467650117	1.9982999999999997	7.3716	1
842.79428914068	1.8882333333333334	7.262	1
842.79428914068	1.8251333333333333	7.212133333333333	1
842.266261492604	1.7078999999999995	7.1216	1
842.266261492604	1.5051333333333332	6.8888	1
841.8443548940699	1.4930666666666665	6.933066666666667	1
841.8443548940699	1.4003333333333332	7.1048	1
841.6884133197747	1.3261666666666667	7.1197333333333335	1
841.529318362537	1.2807	7.176666666666667	1
841.529318362537	1.2368333333333332	7.153333333333333	1
841.3212699364431	1.2368333333333332	7.027733333333332	1
841.3212699364431	1.1992999999999998	7.027733333333332	1
841.0050677559972	1.1655	7.040933333333332	1
841.0050677559972	1.1123999999999996	7.192000000000001	1
840.9013291457607	1.0723666666666665	7.211066666666667	1
840.9013291457607	1.0653666666666666	7.201866666666667	1
840.6911259921469	1.0491333333333333	7.278266666666665	1
840.6911259921469	1.0109666666666666	7.413333333333333	1
840.3786257895075	0.9780999999999999	7.271066666666667	1
839.7488731033152	0.8558666666666667	7.261333333333334	1
839.7488731033152	0.8323333333333333	7.2608	1
839.4344456753477	0.8323333333333333	7.334133333333333	1
839.4344456753477	0.7960333333333333	7.291733333333333	1
839.1872908474182	0.7763333333333332	7.291733333333333	1
839.1872908474182	0.7814666666666665	7.3404	1
839.1731045357919	0.7471999999999999	7.274799999999999	1
839.1731045357919	0.7389333333333332	7.189733333333334	1
838.7017214631119	0.7133666666666666	7.2376	1
838.7017214631119	0.6868666666666666	7.190533333333333	1
838.2314100203141	0.6369999999999999	7.211733333333333	1
838.1829844067811	0.6275333333333333	7.3528	1
838.1829844067811	0.6230333333333332	7.468799999999998	1
837.7614974669523	0.5728666666666665	7.1968	1
837.7614974669523	0.5589333333333333	7.097733333333332	1
837.3444977418026	0.5589333333333333	7.217199999999999	1
837.3444977418026	0.5590666666666666	7.217199999999999	1
837.2955243469831	0.5165999999999998	7.185333333333333	1
837.2955243469831	0.5076333333333332	7.071199999999999	1
837.1386809493322	0.5014333333333333	7.183999999999999	1
837.1386809493322	0.5155999999999998	7.365466666666666	1
836.8261444810671	0.5022333333333332	7.458266666666665	1
836.8261307407842	0.48266666666666663	7.450533333333333	1
836.8261307407842	0.47036666666666654	7.380799999999999	1
836.0991616818635	0.4623999999999999	7.416266666666667	1
836.0991616818635	0.4472666666666666	7.257199999999999	1
836.0955239896585	0.43673333333333325	7.229333333333334	1
836.0955239896585	0.43673333333333325	7.343466666666666	1
835.475645514325	0.43283333333333324	7.351333333333332	1
835.475645514325	0.41619999999999985	7.351333333333332	1
835.2704964859623	0.41176666666666656	7.2584	1
834.8997631540374	0.41173333333333323	7.162133333333333	1
834.8997631540374	0.39626666666666654	7.170799999999999	1
834.3374298393521	0.3881333333333332	7.183066666666667	1
834.3374298393521	0.3926999999999999	7.219866666666666	1
833.8744289790305	0.39106666666666656	7.376	1
833.8744289790305	0.3858999999999999	7.253066666666667	1
833.875847915574	0.4079666666666666	7.225866666666666	1
833.875847915574	0.3971999999999999	7.308266666666666	1
833.3580715740823	0.3971999999999999	7.377333333333333	1
833.3580715740823	0.3915333333333333	7.399333333333332	1
833.3553944244092	0.3854999999999999	7.399333333333332	1
833.0499424473126	0.3918999999999999	7.354399999999999	1
833.0499424473126	0.39456666666666657	7.243733333333333	1
833.0499424473126	0.3948999999999999	7.268666666666666	1
833.0499424473126	0.3810333333333332	7.307066666666667	1
832.12478885941	0.3934999999999999	7.044	1
832.12478885941	0.3904666666666666	6.8482666666666665	1
831.7134288597025	0.39439999999999986	7.0855999999999995	1
831.7134288597025	0.38183333333333325	7.234400000000001	1
831.7136996175376	0.3883999999999999	7.371866666666665	1
831.7136996175376	0.3883999999999999	7.415466666666666	1
831.1068698457098	0.3999999999999999	7.415466666666666	1
830.8387632021545	0.3961333333333332	7.443733333333333	1
830.8387632021545	0.3883999999999999	7.4768	1
830.4836213454947	0.39439999999999986	7.202133333333333	1
830.4836213454947	0.3849999999999999	7.247599999999999	1
829.9725876042858	0.3961999999999999	7.368533333333332	1
829.9725876042858	0.38369999999999993	6.965733333333333	1
829.9728267169121	0.38356666666666656	7.019466666666667	1
829.9728267169121	0.38539999999999985	7.149333333333334	1
829.9728341378975	0.3949666666666666	7.368799999999999	1
829.456712841048	0.3953999999999999	7.3521333333333345	1
829.456712841048	0.3953999999999999	7.145733333333334	1
829.2576046075653	0.3856999999999999	7.182933333333334	1
829.2576046075653	0.3805999999999999	7.182933333333334	1
829.2575876444083	0.39726666666666655	7.4475999999999996	1
829.2575876444083	0.38679999999999987	7.433733333333333	1
828.642977002599	0.3947333333333332	7.240799999999999	1
828.642977002599	0.3929999999999999	7.219200000000001	1
828.1347484802818	0.3941333333333332	7.2270666666666665	1
828.1347484802818	0.39816666666666656	7.280533333333333	1
828.1372625418259	0.38659999999999994	7.230666666666666	1
827.8282284700961	0.38523333333333326	7.074266666666666	1
827.8282284700961	0.39103333333333323	7.056933333333333	1
827.3218368979968	0.39103333333333323	7.162800000000001	1
827.3218368979968	0.3845333333333332	7.1484	1
827.0193820019213	0.3906333333333332	7.1484	1
827.0193820019213	0.38256666666666655	6.921199999999999	1
826.817022264503	0.3931666666666666	7.1532	1
826.817022264503	0.39059999999999995	7.202399999999999	1
826.106012942555	0.38269999999999993	7.121866666666665	1
826.106012942555	0.39833333333333326	7.103866666666666	1
826.1071502412884	0.3800666666666666	7.091199999999999	1
825.6002093005993	0.3873999999999999	7.008666666666667	1
825.6002093005993	0.3913333333333332	6.848666666666668	1
825.6020925907134	0.3944333333333332	6.7582666666666675	1
825.6020925907134	0.39019999999999994	6.7089333333333325	1
825.3404499661364	0.39019999999999994	6.832799999999999	1
825.3404499661364	0.39736666666666653	6.832799999999999	1
824.7913031475125	0.38746666666666657	6.7876	1
824.7913031475125	0.38803333333333323	6.848266666666666	1
824.4355369014165	0.3937333333333332	6.829200000000001	1
824.4355369014165	0.3952333333333332	6.896000000000001	1
824.336408705082	0.39019999999999994	6.878133333333333	1
824.0318801014993	0.40116666666666656	6.959733333333333	1
824.0318801014993	0.3936333333333332	6.9589333333333325	1
823.5278054520877	0.3869999999999999	6.931733333333332	1
823.5278054520877	0.39256666666666656	6.827733333333334	1
823.4805104282292	0.3903666666666666	6.846266666666666	1
823.4805104282292	0.3903666666666666	6.949866666666667	1
822.7241690927706	0.37786666666666663	6.949866666666667	1
822.7241690927706	0.39126666666666654	7.077466666666667	1
822.3218715268605	0.3815333333333332	6.8974666666666655	1
822.3218715268605	0.38093333333333323	6.6819999999999995	1
822.3218713931304	0.3908999999999999	6.768666666666666	1
822.2205516520412	0.4008999999999999	6.861199999999999	1
822.2205516520412	0.3972333333333332	6.878133333333332	1
821.8253380113322	0.4003999999999999	6.817866666666667	1
821.8253380113322	0.3874999999999999	6.799333333333334	1
821.1191553415168	0.3922333333333332	6.817866666666666	1
821.1191553415168	0.3922333333333332	6.750533333333333	1
821.0204546541701	0.3845333333333333	6.688533333333333	1
821.0204546541701	0.39839999999999987	6.688533333333333	1
820.6236160818187	0.39639999999999986	6.657333333333334	1
820.6236160818187	0.3926333333333332	6.437733333333334	1
820.6237145411267	0.3979999999999999	6.436533333333333	1
819.7754527570621	0.39626666666666654	6.445866666666667	1
819.7754527570621	0.38309999999999994	6.4152	1
819.7756110376	0.38123333333333326	6.3984000000000005	1
819.7756110376	0.3913999999999999	6.386933333333334	1
818.9252960071232	0.3896999999999999	6.280933333333333	1
818.9252960071232	0.3947666666666666	6.439866666666667	1
818.6296520795009	0.3947666666666666	6.1828	1
818.6296520795009	0.38616666666666655	6.122800000000001	1
818.6253738605643	0.3876666666666665	6.122800000000001	1
818.6253738605643	0.38119999999999993	6.127466666666668	1
818.2296353242363	0.3877333333333332	6.167333333333334	1
817.6339846707211	0.37983333333333325	6.0584	1
817.6339846707211	0.38419999999999993	6.176933333333333	1
817.5919019638394	0.39423333333333316	6.163733333333333	1
817.5919019638394	0.39149999999999985	6.3112	1
816.842893195267	0.3823999999999999	6.401466666666668	1
816.842893195267	0.3908666666666666	6.400933333333334	1
816.8429141950668	0.3822333333333332	6.3344000000000005	1
816.8429141950668	0.3892666666666666	6.091466666666667	1
816.2061673449172	0.3892666666666666	6.064666666666667	1
816.2061673449172	0.3868666666666666	6.064666666666667	1
815.261670817904	0.38339999999999996	6.0576	1
815.2596619645755	0.3828999999999999	6.2063999999999995	1
815.2596619645755	0.38333333333333325	6.344933333333335	1
815.2605539542533	0.3882333333333332	6.404666666666667	1
815.2605539542533	0.3963999999999999	6.417066666666668	1
814.771434945407	0.3906999999999999	6.436533333333333	1
814.771434945407	0.38733333333333325	6.362933333333334	1
814.7723123919233	0.39529999999999993	6.396800000000002	1
814.7723123919233	0.38793333333333324	6.403200000000001	1
814.3333459166308	0.3942999999999999	6.2165333333333335	1
814.3333459166308	0.38689999999999986	6.148533333333333	1
814.3333459166308	0.38689999999999986	6.2736	1
813.9844810106005	0.38466666666666655	6.2736	1
813.9844810106005	0.39019999999999994	6.28	1
813.4958641791727	0.3825333333333332	6.28	1
813.4958641791727	0.3931333333333332	6.100533333333333	1
813.0555572136319	0.38679999999999987	6.064133333333333	1
813.0555572136319	0.3931666666666666	6.093333333333334	1
813.0561109483281	0.3979666666666666	6.189333333333333	1
813.0561109483281	0.3967666666666666	6.213333333333333	1
812.7086978324776	0.3848666666666665	6.196400000000001	1
811.8273832069	0.3945999999999999	6.212933333333333	1
811.8273832069	0.3945999999999999	6.237466666666666	1
811.8271255959125	0.3964666666666665	6.2608	1
811.8271255959125	0.38793333333333324	6.2608	1
811.5350047143613	0.38899999999999985	6.279333333333333	1
811.5350047143613	0.38953333333333323	6.238933333333333	1
811.4378376097056	0.3881333333333332	5.9848	1
811.4378376097056	0.38703333333333323	6.185466666666667	1
811.436690071195	0.3979999999999999	6.2922666666666665	1
811.436690071195	0.37589999999999996	6.246266666666667	1
810.5030064119184	0.3988999999999999	6.361733333333334	1
810.5614814480543	0.3890333333333333	6.4512	1
810.5614814480543	0.38246666666666657	6.509066666666667	1
810.2666598819411	0.38246666666666657	6.401466666666667	1
810.2666598819411	0.39593333333333325	6.1204	1
809.7816243425008	0.3878333333333332	6.1204	1
809.7816243425008	0.3818999999999999	6.274133333333333	1
809.7817283030389	0.38966666666666655	6.280133333333334	1
809.7817283030389	0.38696666666666657	6.2139999999999995	1
809.3918865407722	0.3928999999999999	6.077333333333333	1
809.3918865407722	0.39633333333333326	6.314400000000001	1
808.4235929227729	0.39356666666666656	6.282666666666667	1
808.4235929227729	0.3975333333333332	6.5726666666666675	1
808.2279864360182	0.38679999999999987	6.4534666666666665	1
808.1339569803228	0.3802666666666666	6.086666666666667	1
808.1339569803228	0.3802666666666666	6.104933333333333	1
808.1748268982825	0.39623333333333327	6.1632	1
808.1748268982825	0.3917666666666666	6.1632	1
807.7458602386405	0.3896666666666666	6.676533333333333	1
807.7458602386405	0.38853333333333323	6.8404	1
807.3597438663011	0.39676666666666655	6.830799999999999	1
807.3597438663011	0.3968333333333332	6.1668	1
806.9720254061187	0.3899333333333332	6.721466666666667	1
806.9720254061187	0.38583333333333325	6.657333333333334	1
806.877108219466	0.39086666666666653	6.1989333333333345	1
806.0098745217662	0.3850333333333332	6.482533333333334	1
806.0098745217662	0.39003333333333323	6.57	1
806.0098651668527	0.3938333333333332	6.6192	1
806.0098651668527	0.3938333333333332	6.679333333333333	1
806.0098657731528	0.3850333333333332	6.679333333333333	1
806.0098657731528	0.3852666666666666	6.693466666666667	1
804.9505731068087	0.3961999999999999	6.4784	1
804.9505731068087	0.38769999999999993	6.461733333333333	1
804.8561770931105	0.39093333333333324	6.435733333333333	1
804.8561770931105	0.3867333333333332	6.412133333333334	1
804.4738476370925	0.3942666666666666	6.325866666666667	1
804.4729067988208	0.3938666666666666	6.157333333333335	1
804.4729067988208	0.39433333333333326	6.144666666666667	1
804.3787696906498	0.39366666666666655	6.142666666666667	1
804.3787696906498	0.3922666666666666	6.292133333333333	1
804.0883400761593	0.3922666666666666	5.703866666666667	1
804.0883400761593	0.38639999999999985	5.703866666666667	1
803.6099618503558	0.3985333333333332	5.509199999999999	1
803.6099618503558	0.38473333333333326	5.088133333333333	1
803.2255705344694	0.3802666666666666	4.967733333333333	1
802.9820161243873	0.3917333333333332	3.554133333333333	1
802.9820161243873	0.39286666666666653	2.977066666666666	1
802.6570645637594	0.3890999999999999	2.062133333333333	1
802.6570645637594	0.3950333333333332	1.9289333333333336	1
802.3700359624355	0.39266666666666655	1.355333333333333	1
802.3700359624355	0.3823333333333332	0.3957333333333332	1
801.6067012298815	0.3830333333333332	0.35999999999999993	1
801.6067012298815	0.3830333333333332	0.2791999999999998	1
801.4165352783821	0.38679999999999987	0.2791999999999998	1
801.4165352783821	0.38933333333333325	0.2454666666666666	1
801.1275225823575	0.39103333333333323	0.2001333333333335	1
801.130066447902	0.39156666666666656	0.19946666666666688	1
801.130066447902	0.39086666666666653	0.1989333333333335	1
801.1301394685911	0.3905999999999999	0.1997333333333335	1
801.1301394685911	0.38993333333333324	0.18920000000000015	1
800.3708628132981	0.38853333333333323	0.04400000000000004	1
800.3708628132981	0.38146666666666657	0.040000000000000036	1
800.3701686170973	0.3818666666666666	0.040000000000000036	1
800.3701686170973	0.3818666666666666	0.040000000000000036	1
800.0064407497379	0.3803999999999999	0.040000000000000036	1
800.0064407497379	0.3870999999999999	0.040000000000000036	1
