wavelength(nm)	flourescence PMT(V)	ti_saph Power (V)	Gain (V)
800.3669383151426	0.3900999999999999	0.040000000000000036	1
800.3669383151426	0.3900999999999999	0.04013333333333337	1
802.0646219864017	0.37663333333333326	0.04013333333333337	1
801.1278688901318	0.38119999999999993	0.05426666666666672	1
801.1278688901318	0.38866666666666655	0.15000000000000013	1
801.2205924440226	0.3861999999999999	0.2001333333333335	1
801.2205924440226	0.38593333333333324	0.20080000000000017	1
801.2205543691491	0.3971666666666666	0.20120000000000016	1
801.2205543691491	0.39616666666666656	0.20080000000000017	1
801.2215508027434	0.3897999999999999	0.22960000000000008	1
801.6018726614283	0.3839333333333332	0.28293333333333315	1
801.6018726614283	0.3909666666666666	0.3601333333333332	1
801.6018726614283	0.38716666666666655	0.36026666666666657	1
801.6018726614283	0.38716666666666655	0.3871999999999999	1
802.4595544942613	0.3970333333333332	1.5677333333333332	1
802.8399030707039	0.38706666666666656	1.5677333333333332	1
802.8399030707039	0.39626666666666654	1.585333333333333	1
802.8410039149663	0.39183333333333326	2.5189333333333335	1
802.8410039149663	0.38796666666666657	2.5387999999999997	1
803.2234466379533	0.39083333333333325	2.9969333333333332	1
803.2234466379533	0.3837999999999999	3.886933333333333	1
803.6081830414819	0.3894666666666665	5.1936	1
803.9909092174046	0.3823333333333332	5.532266666666666	1
803.9909092174046	0.3873999999999999	5.893066666666666	1
804.0851834763798	0.3953999999999999	5.968666666666667	1
804.0851834763798	0.3953999999999999	6.555066666666667	1
804.4688664607307	0.3951333333333332	6.555066666666667	1
804.4697047971008	0.38366666666666654	6.5941333333333345	1
804.4697047971008	0.39319999999999994	6.582533333333334	1
804.8546552146179	0.38556666666666656	6.3696	1
804.8546552146179	0.3941999999999999	6.419866666666667	1
804.8546918793865	0.39223333333333327	6.429333333333334	1
804.8536096177673	0.38396666666666657	6.486133333333334	1
804.8536096177673	0.3841999999999999	6.580800000000001	1
804.9484008431051	0.38496666666666657	6.653333333333333	1
804.9484008431051	0.38416666666666655	6.6892	1
806.0066142148453	0.3906333333333332	7.085466666666668	1
806.0066142148453	0.3906333333333332	7.094799999999998	1
806.0066923824062	0.38623333333333326	7.076933333333333	1
806.1980963260335	0.3883999999999999	7.076933333333333	1
806.1980963260335	0.38393333333333324	6.902399999999999	1
806.3545368849076	0.38996666666666663	6.790133333333333	1
806.3545368849076	0.3822999999999999	6.904933333333333	1
806.9703690884132	0.3950333333333332	6.946666666666666	1
807.2629770427321	0.3863666666666666	6.9811999999999985	1
807.2629770427321	0.3897666666666666	6.593066666666667	1
807.4508375727868	0.3745666666666666	6.556666666666667	1
807.4508375727868	0.38876666666666654	6.819866666666666	1
807.74337646427	0.38546666666666657	6.9052	1
808.0346457335493	0.38546666666666657	6.8116	1
808.0346457335493	0.38519999999999993	6.928533333333333	1
808.0345391818287	0.38846666666666657	6.928533333333333	1
808.0345391818287	0.3861999999999999	6.8192	1
808.2275409810222	0.3863999999999999	6.428	1
808.2275409810222	0.38146666666666657	6.606933333333333	1
808.226289656817	0.3916333333333333	6.669466666666667	1
808.4193653178753	0.3871333333333332	6.627733333333333	1
808.4193653178753	0.3872666666666666	6.256666666666667	1
808.6155726369406	0.3875999999999999	6.2540000000000004	1
808.6155726369406	0.3872333333333332	6.382666666666667	1
809.3932007453155	0.3976333333333332	6.406533333333334	1
809.6832675675853	0.3976333333333332	6.52	1
809.6832675675853	0.3890333333333333	6.6092	1
809.8205683888378	0.38893333333333324	6.6092	1
809.8205683888378	0.37759999999999994	6.494666666666667	1
810.264949391863	0.38163333333333327	6.28	1
810.6568757192204	0.39543333333333325	6.272266666666666	1
810.6568757192204	0.3908999999999999	6.5468	1
810.6556460982036	0.38493333333333324	6.6378666666666675	1
810.6556460982036	0.3826666666666666	6.353999999999999	1
811.0449643690279	0.38269999999999993	6.582533333333333	1
811.3376995159377	0.3878999999999999	6.921599999999999	1
811.3376995159377	0.38566666666666655	6.7434666666666665	1
811.3910114858668	0.38566666666666655	6.651866666666667	1
811.3910114858668	0.3863666666666666	6.390533333333333	1
811.779146379232	0.3802333333333332	6.390533333333333	1
811.779146379232	0.3895333333333332	6.537466666666666	1
811.7790742860658	0.3826666666666665	6.647733333333332	1
811.8761594580494	0.3900999999999999	6.526533333333333	1
811.8761594580494	0.39649999999999985	6.441066666666667	1
811.8751668066764	0.3932333333333332	6.414266666666668	1
811.8751668066764	0.39083333333333325	6.437733333333334	1
812.7067994281765	0.3939333333333332	6.266266666666667	1
812.7069081189545	0.3940333333333333	6.393333333333334	1
812.7069081189545	0.40119999999999983	6.254399999999999	1
813.0536778952659	0.38766666666666655	6.341866666666666	1
813.0536778952659	0.38766666666666655	6.3751999999999995	1
813.1483186860783	0.3872666666666666	6.3176000000000005	1
813.1483001778654	0.3899999999999999	6.3176000000000005	1
813.1483001778654	0.3878999999999999	6.2918666666666665	1
813.9839413977322	0.39019999999999994	6.087466666666667	1
813.9839413977322	0.39003333333333323	6.3874666666666675	1
813.9839437073533	0.38583333333333325	6.3500000000000005	1
814.2328752490134	0.38363333333333327	6.289066666666668	1
814.2328752490134	0.39016666666666655	5.981066666666666	1
814.722422123269	0.38876666666666654	6.099733333333334	1
814.722422123269	0.3936333333333332	6.1025333333333345	1
814.7224020547852	0.3886333333333333	6.213866666666667	1
815.114706007536	0.3886333333333333	6.5296	1
815.114706007536	0.38246666666666657	6.6743999999999994	1
815.0732480644017	0.3904666666666665	6.6743999999999994	1
815.0732480644017	0.3953666666666666	6.6946666666666665	1
815.2601343053926	0.3903333333333332	6.594000000000001	1
815.2601343053926	0.3852333333333332	6.488533333333334	1
815.4093146182048	0.39266666666666655	6.341066666666667	1
815.556527039112	0.3871333333333332	6.207466666666666	1
815.556527039112	0.3924666666666666	6.2508	1
816.541434348551	0.3901333333333332	6.281466666666666	1
816.541434348551	0.37966666666666654	6.580000000000001	1
816.798506530369	0.38643333333333324	6.6452	1
817.3324004010876	0.38643333333333324	6.593066666666667	1
817.3324004010876	0.3888666666666666	6.521066666666667	1
817.6341604407038	0.3932999999999999	6.521066666666667	1
817.6341604407038	0.3898666666666666	6.612800000000001	1
817.63408601512	0.3827333333333332	6.6433333333333335	1
817.734341640782	0.39036666666666653	6.566800000000001	1
817.734341640782	0.39086666666666653	6.399733333333335	1
818.6256682544259	0.38596666666666657	6.480533333333333	1
818.6256682544259	0.3895999999999999	6.281066666666666	1
818.6247047445875	0.39229999999999987	6.28	1
818.6247057961245	0.3833666666666665	6.28	1
818.6247057961245	0.3857333333333332	6.280533333333333	1
818.9755216974361	0.39366666666666655	6.3892	1
818.9755216974361	0.39366666666666655	6.3212	1
819.7203835971865	0.3771666666666666	6.3212	1
819.7203835971865	0.3944333333333332	6.600533333333333	1
819.8201539919961	0.3987333333333333	6.732533333333333	1
820.6167072805067	0.39053333333333323	6.732266666666666	1
820.6167072805067	0.38753333333333323	6.710133333333333	1
820.6167262929904	0.38973333333333327	6.710133333333332	1
820.6167262929904	0.3778666666666666	6.6816	1
820.8172980531135	0.39093333333333324	6.830666666666666	1
821.1159406811875	0.39633333333333326	6.792133333333334	1
821.1159406811875	0.38856666666666656	6.773466666666667	1
821.1172966599933	0.38263333333333327	6.7489333333333335	1
821.1172966599933	0.38263333333333327	6.6596	1
821.8217067760725	0.3867333333333332	6.843733333333333	1
821.821677509253	0.3845333333333332	6.843733333333333	1
821.821677509253	0.38373333333333326	7.048266666666665	1
821.8698871582461	0.39233333333333326	7.035733333333334	1
821.8698871582461	0.38903333333333323	6.8675999999999995	1
822.2180484627937	0.3888666666666666	6.918133333333332	1
822.2745455454365	0.3910999999999999	6.8945333333333325	1
822.2745455454365	0.39376666666666654	6.979333333333332	1
822.4210327763996	0.39086666666666653	6.975333333333333	1
822.4210327763996	0.38196666666666657	7.070399999999999	1
822.7236186728024	0.38766666666666655	7.2132000000000005	1
822.7236186728024	0.38766666666666655	7.262266666666668	1
823.5275226865306	0.3871333333333332	7.2548	1
823.5266796670549	0.3875666666666666	7.2548	1
823.5266796670549	0.3895999999999999	7.3541333333333325	1
824.0255603343005	0.38846666666666657	7.396133333333332	1
824.0255603343005	0.3924666666666666	7.451199999999999	1
824.4304608331933	0.39353333333333324	7.2464	1
824.4319374097915	0.3852666666666666	7.033733333333333	1
824.4319374097915	0.3872333333333332	6.906266666666667	1
824.7888210327187	0.38876666666666654	6.9472	1
824.7888210327187	0.3850333333333333	7.06	1
824.7888344050182	0.3850999999999999	7.044933333333332	1
825.2946215247418	0.3850999999999999	7.0752	1
825.2946215247418	0.39206666666666656	7.1681333333333335	1
825.5960681048822	0.3871666666666666	7.1681333333333335	1
825.5960681048822	0.3865999999999999	7.003466666666666	1
825.697241926973	0.3792333333333332	7.044399999999999	1
825.7942838340861	0.3920999999999999	7.1216	1
825.7942838340861	0.37699999999999995	7.497466666666666	1
826.10199133629	0.38896666666666657	7.324399999999999	1
826.10199133629	0.3812999999999999	7.318133333333332	1
826.1019443365813	0.38929999999999987	7.267733333333332	1
826.1019443365813	0.39819999999999994	7.149066666666667	1
826.913292885699	0.3861999999999999	7.183866666666666	1
826.9134945093391	0.3861999999999999	7.003466666666666	1
826.9134945093391	0.3973666666666666	6.976933333333333	1
827.1152784248695	0.3884999999999999	6.976933333333333	1
827.1152784248695	0.38933333333333325	7.204666666666665	1
827.8274403222458	0.38693333333333324	7.246266666666667	1
827.827435962703	0.3831333333333332	7.332133333333333	1
827.827435962703	0.3831999999999999	7.3	1
828.0312530578622	0.38793333333333324	7.172533333333333	1
828.0312530578622	0.3820999999999999	7.146533333333333	1
828.3352896106336	0.3902999999999999	7.0916	1
828.6395025748159	0.3858666666666665	7.169200000000001	1
828.6395025748159	0.3901333333333332	7.271866666666665	1
828.743501837918	0.3901333333333332	7.5313333333333325	1
828.743501837918	0.3800999999999999	7.549999999999998	1
828.7434288032781	0.3818333333333333	7.549999999999998	1
829.2492517476693	0.3921333333333332	7.5902666666666665	1
829.2492517476693	0.3916333333333333	7.567733333333332	1
829.4596216141605	0.37856666666666655	7.3528	1
829.4596216141605	0.3871333333333332	7.558933333333333	1
829.8643595171748	0.39009999999999984	7.760666666666666	1
829.8643099239949	0.3929999999999999	7.700799999999999	1
829.8643099239949	0.3878333333333332	7.494399999999999	1
829.968172648822	0.37906666666666655	7.4370666666666665	1
829.968172648822	0.38696666666666657	7.539866666666665	1
830.3783244752566	0.39343333333333325	7.678933333333334	1
830.4755658372003	0.39343333333333325	7.403066666666667	1
830.4755658372003	0.3898999999999999	7.403066666666667	1
830.9385302122138	0.39043333333333324	7.318133333333334	1
830.9385302122138	0.38683333333333325	7.176533333333333	1
831.2004523667287	0.3940999999999999	7.1468	1
831.7104501251686	0.3936333333333332	7.235733333333332	1
831.7104501251686	0.3777666666666666	7.557733333333332	1
831.7110892174351	0.40266666666666656	7.56	1
831.7110892174351	0.3866333333333332	7.5287999999999995	1
832.1733935989108	0.3923999999999999	7.2791999999999994	1
832.5299042116776	0.3970333333333333	7.334933333333334	1
832.5299042116776	0.3917333333333332	7.2504	1
832.9914350931772	0.3917333333333332	7.312399999999999	1
832.9914350931772	0.3936333333333332	7.312399999999999	1
833.0438518472218	0.39229999999999987	7.292533333333332	1
833.0438518472218	0.38793333333333324	7.186933333333333	1
833.4075228034826	0.3882666666666666	7.173466666666666	1
833.9212475884683	0.3888666666666666	7.255999999999999	1
833.9212475884683	0.3892333333333332	7.277333333333333	1
833.9225093616222	0.3975666666666666	7.152133333333333	1
833.9225093616222	0.3982999999999998	7.097866666666667	1
834.3327868072502	0.39129999999999987	7.227599999999999	1
834.3361415001664	0.4024333333333332	7.261333333333334	1
834.3361415001664	0.4024333333333332	7.037599999999999	1
834.5948762610589	0.3890999999999999	7.129066666666666	1
834.5948762610589	0.3945999999999999	7.129066666666666	1
835.2654312517199	0.4031666666666665	7.2577333333333325	1
835.4746103295977	0.40529999999999994	7.1862666666666675	1
835.4746103295977	0.4232999999999999	7.099466666666667	1
835.6311743204761	0.41753333333333326	7.323333333333333	1
835.6311743204761	0.42506666666666654	7.402266666666665	1
835.9968749894597	0.43846666666666656	7.394666666666666	1
836.5634020519108	0.43883333333333324	7.391466666666665	1
836.5634020519108	0.4574333333333332	7.345733333333334	1
836.822476533885	0.47773333333333323	7.260133333333333	1
836.822476533885	0.4733333333333332	7.442133333333333	1
837.027615283859	0.4733333333333332	7.3958666666666675	1
837.027615283859	0.5035999999999999	7.3958666666666675	1
837.0276137609286	0.5126999999999999	7.350266666666666	1
837.3387763153611	0.5080999999999999	7.316533333333333	1
837.3387763153611	0.5231333333333332	7.3528	1
837.3420509536348	0.5420999999999998	7.3919999999999995	1
837.3420509536348	0.5441999999999999	7.501466666666666	1
837.6553299043736	0.5735333333333333	7.434666666666666	1
837.9677326643083	0.5977333333333333	7.431199999999999	1
837.9677326643083	0.5959999999999999	7.37	1
838.2796826162572	0.6250666666666667	7.3172	1
838.2796826162572	0.6335	7.16	1
838.5407537965132	0.6335	7.154133333333332	1
838.6980377749575	0.6609333333333333	7.154133333333332	1
838.6980377749575	0.6804666666666667	7.2561333333333335	1
839.2194182474869	0.7212999999999999	7.228666666666666	1
839.2194182474869	0.7460333333333332	7.2352	1
839.4284005472938	0.7551999999999999	7.1872	1
839.5339523923705	0.7862666666666666	7.295466666666666	1
839.5339523923705	0.8055333333333332	7.515866666666668	1
839.5339610373715	0.8071666666666666	7.560933333333333	1
839.5339610373715	0.8509333333333332	7.400666666666666	1
840.4743346681306	0.9238666666666666	7.244399999999999	1
840.4743346681306	0.9643333333333332	7.191999999999999	1
840.4743582122874	0.9643333333333332	7.067866666666667	1
840.8947752192973	0.9889333333333332	7.021066666666667	1
840.8947752192973	1.0492333333333332	7.021066666666667	1
840.8982134923377	1.0650666666666666	7.1436	1
840.8982134923377	1.094833333333333	7.278133333333332	1
841.2638295510199	1.1766333333333332	7.284266666666666	1
841.52997507327	1.1628666666666665	7.044266666666666	1
841.52997507327	1.1968333333333332	7.0612	1
841.530287197823	1.2817333333333332	7.287066666666666	1
841.530287197823	1.3	7.191066666666666	1
841.7374853367476	1.3527999999999998	7.021999999999999	1
842.1578400258151	1.3572666666666664	6.921866666666666	1
842.1578400258151	1.3572666666666664	6.690666666666666	1
842.5812064430108	1.4284666666666666	6.6101333333333345	1
842.5812064430108	1.4275	6.6101333333333345	1
842.5796700739435	1.6288999999999998	6.882266666666666	1
842.5796700739435	1.8229666666666666	7.206266666666667	1
842.8954729080452	1.8840666666666668	7.231866666666667	1
843.1048503374261	1.9566000000000001	7.104266666666668	1
843.1048503374261	1.9226999999999999	7.055599999999999	1
843.4267140660563	2.093933333333333	7.310266666666666	0.40000000000000013
843.5303353621902	1.3023333333333331	7.245600000000001	0.9
844.3754979895907	1.097333333333333	7.060666666666666	1
844.3754979895907	1.097333333333333	4.915333333333333	1
844.6936357159724	1.4282666666666666	3.813733333333333	1
844.6936357159724	1.6736333333333333	3.813733333333333	1
844.7997215681021	1.5956666666666666	3.1121333333333334	1
844.9038107864827	1.5714	2.8856	1
844.9038107864827	1.5226666666666666	2.743333333333333	1
844.9036498859514	1.451933333333333	2.519333333333333	1
844.9036498859514	1.3993666666666664	2.2530666666666668	1
843.1050441748379	2.0247333333333337	7.223333333333334	0.40000000000000013
843.1050441748379	1.3709666666666664	7.110666666666666	1
842.7930126848747	0.975333333333333	7.057866666666666	1
842.7930126848747	1.5315666666666665	6.917999999999998	1
842.5795022777635	1.6878	7.0832	1
842.1578565588374	1.4913666666666665	6.7984	1
842.1578565588374	1.4913666666666665	6.674933333333333	1
842.5939770492097	1.4114666666666664	6.678133333333333	1
842.5939770492097	1.4312333333333331	6.678133333333333	1
841.7371255169875	1.306533333333333	6.908666666666665	1
841.5300423355552	1.300733333333333	6.951333333333333	1
841.5300423355552	1.2631	7.179199999999999	1
841.2639091569297	1.2479	7.1997333333333335	1
841.2639091569297	1.1816333333333333	6.9568	1
841.2140822690685	1.1239	6.986400000000001	1
841.2140822690685	1.1421333333333332	7.024666666666667	1
840.8992381869069	1.0516999999999999	6.91	1
840.8993860056344	1.0573666666666666	6.988399999999999	1
840.8993860056344	1.0573666666666666	7.2336	1
840.4737999767615	1.0486333333333333	7.391599999999999	1
840.4737999767615	0.9985999999999999	7.391599999999999	1
840.0061097503717	0.9668999999999998	7.290799999999999	1
839.5340392551868	0.8698666666666666	7.238933333333331	1
839.5340392551868	0.8135333333333331	7.309066666666667	1
839.533852811548	0.7814666666666666	7.2922666666666665	1
839.533852811548	0.7823666666666665	7.332399999999998	1
839.2181494902701	0.7895333333333332	7.379733333333333	1
839.2181494902701	0.7598333333333332	7.4792000000000005	1
839.0668448208598	0.7477666666666665	7.47	1
838.5909244727911	0.6904333333333332	7.355466666666667	1
838.5909244727911	0.6904333333333332	7.270533333333333	1
838.2808227949655	0.6588666666666666	7.300799999999999	1
838.2808227949655	0.6331666666666667	7.300799999999999	1
837.9666863137264	0.6292	7.456666666666667	1
837.7542460102012	0.5966333333333331	7.366933333333333	1
837.7542460102012	0.5903999999999999	7.321733333333333	1
837.346454569208	0.5603999999999999	7.472666666666666	1
837.346454569208	0.5398999999999999	7.470266666666666	1
837.341983879131	0.5310999999999999	7.5338666666666665	1
837.341983879131	0.5455999999999999	7.479866666666665	1
837.2390793401094	0.5211333333333332	7.297866666666666	1
837.0320492122355	0.4997333333333332	7.361199999999999	1
837.0320492122355	0.4997333333333332	7.373066666666667	1
836.8759250330244	0.5090666666666666	7.382	1
836.8759250330244	0.4918999999999999	7.382	1
836.7102511230089	0.4857666666666665	7.2965333333333335	1
836.0955861189309	0.46649999999999986	7.368266666666665	1
836.0955861189309	0.4532999999999998	7.336133333333333	1
835.6815230737074	0.4541999999999999	7.2791999999999994	1
835.6815230737074	0.4275333333333333	7.361999999999998	1
835.4227943469883	0.42829999999999985	7.4475999999999996	1
835.4227943469883	0.4272333333333332	7.248533333333332	1
835.4213463025359	0.4125333333333332	7.0557333333333325	1
835.2637316155254	0.40399999999999986	7.024799999999999	1
835.2637316155254	0.40746666666666653	7.105600000000001	1
834.8012835877901	0.40746666666666653	7.2836	1
834.8012835877901	0.4036999999999999	7.2836	1
834.5000241474731	0.3894999999999999	7.437333333333333	1
834.5000241474731	0.39903333333333324	7.543066666666667	1
834.2862871793395	0.3978666666666666	7.339200000000001	1
833.8728524283234	0.3916333333333332	7.356133333333332	1
833.8728524283234	0.3961333333333332	7.2368	1
833.4067234019503	0.40189999999999987	7.229066666666666	1
833.4067234019503	0.39003333333333323	7.250266666666667	1
833.4067234019503	0.3878333333333332	7.378133333333333	1
833.3571078303972	0.3852999999999999	7.527066666666666	1
833.3571078303972	0.3928333333333332	7.4719999999999995	1
832.9927191070677	0.3928333333333332	7.454933333333332	1
832.9927191070677	0.3968999999999999	7.454933333333332	1
832.6348266183302	0.3964666666666666	7.245333333333333	1
832.6348266183302	0.38539999999999985	7.314533333333333	1
832.6348266183302	0.3949999999999999	7.387333333333332	1
831.711833976983	0.3940999999999999	7.2668	1
831.711833976983	0.3970666666666665	7.5695999999999986	1
831.7110655562599	0.3886999999999999	7.597866666666666	1
831.5055540023916	0.3943666666666666	7.615999999999998	1
831.5055540023916	0.3854999999999999	7.385333333333332	1
831.1955288716854	0.3894666666666665	7.349599999999999	1
831.1955288716854	0.3922333333333332	7.546133333333334	1
830.4799042901433	0.3922333333333332	7.351866666666666	1
830.4799042901433	0.3965999999999999	7.098800000000001	1
830.5218600860027	0.3974333333333332	7.098800000000001	1
829.9666523365339	0.39153333333333323	7.354400000000001	1
829.9666523365339	0.3937999999999999	7.521466666666665	1
829.9676917278923	0.39813333333333323	7.253066666666667	1
829.9676917278923	0.3950999999999999	7.396266666666667	1
829.8643426030662	0.3913666666666666	7.5594666666666654	1
829.5590958426191	0.39683333333333326	7.559066666666666	1
829.5590958426191	0.39856666666666657	7.536133333333334	1
829.2539572624264	0.39149999999999985	7.405199999999998	1
829.2539572624264	0.3801999999999999	7.400933333333333	1
828.644548725464	0.3801999999999999	7.228533333333333	1
828.6420061161691	0.3866333333333332	7.181733333333332	1
828.6420061161691	0.39269999999999994	7.181733333333332	1
828.6420343681204	0.38246666666666657	7.3141333333333325	1
828.6420343681204	0.39793333333333325	7.458266666666667	1
828.1324108666404	0.3943666666666666	7.397999999999999	1
828.0320929875841	0.39453333333333324	7.236266666666667	1
828.0320929875841	0.3852666666666666	7.090933333333332	1
827.8282728712308	0.38919999999999993	7.074533333333334	1
827.8282728712308	0.3976999999999999	7.086666666666667	1
827.3209409057354	0.3854999999999999	7.231333333333332	1
827.3209409057354	0.3797333333333332	7.258266666666667	1
826.9142687783144	0.40136666666666654	7.19	1
826.9142687783144	0.40136666666666654	7.221599999999999	1
826.9142687783144	0.3878333333333332	7.221599999999999	1
826.1009611049101	0.3926333333333332	7.181066666666667	1
826.1009611049101	0.4003666666666666	7.219599999999999	1
826.0999004314205	0.3898666666666666	7.221066666666665	1
825.7985668704936	0.3896333333333332	7.221733333333333	1
825.7985668704936	0.3882999999999999	7.314799999999999	1
825.6961882737497	0.39443333333333325	7.1302666666666665	1
825.6961882737497	0.3941333333333332	7.0857333333333345	1
825.5968227085518	0.3958333333333332	7.06	1
825.0761632343464	0.39619999999999983	7.235733333333334	1
825.0761632343464	0.3909999999999999	7.155333333333333	1
824.78976732307	0.3909999999999999	7.0982666666666665	1
824.78976732307	0.38193333333333324	7.071199999999999	1
824.3857589759734	0.3907333333333332	7.071199999999999	1
824.3857589759734	0.3877333333333332	7.034133333333332	1
824.4328759131192	0.38506666666666656	6.973599999999999	1
823.8813537155191	0.3932333333333332	7.054399999999999	1
823.8813537155191	0.38593333333333324	7.221733333333332	1
823.5223606450935	0.3902333333333332	7.2372	1
823.5223606450935	0.38249999999999984	7.012666666666667	1
823.4799711660113	0.3792333333333332	6.942666666666666	1
822.7225485750698	0.38853333333333323	7.100133333333333	1
822.7225485750698	0.38846666666666657	7.064266666666666	1
822.4730279517801	0.38846666666666657	6.9003999999999985	1
822.4730279517801	0.3831999999999999	6.787866666666666	1
822.2233277133909	0.3906999999999999	6.787866666666666	1
822.2191304355628	0.38986666666666653	6.9308	1
822.2191304355628	0.38146666666666657	7.0596000000000005	1
821.8708211616419	0.3877666666666666	7.104133333333334	1
821.8708211616419	0.3878666666666666	6.865733333333333	1
821.8213530029244	0.39226666666666654	6.816400000000001	1
821.8213530029244	0.3955666666666665	6.7438666666666665	1
821.116744937974	0.37896666666666656	6.7463999999999995	1
821.0190408074318	0.39876666666666655	6.755466666666666	1
821.0190408074318	0.38756666666666656	6.844533333333332	1
820.6184572269398	0.38756666666666656	6.822266666666667	1
820.6184572269398	0.38656666666666656	6.744933333333333	1
820.6185859268179	0.3882999999999999	6.744933333333333	1
819.8173851772366	0.38996666666666663	6.725866666666666	1
819.8173851772366	0.3874666666666666	6.766133333333333	1
819.817375236533	0.38779999999999987	6.798	1
819.817375236533	0.3870999999999999	6.780800000000001	1
818.9747072928824	0.3953999999999999	6.635066666666667	1
818.9746087164027	0.38179999999999986	6.445466666666667	1
818.9746087164027	0.39803333333333324	6.473200000000001	1
818.6239154250251	0.38559999999999994	6.535466666666666	1
818.6239154250251	0.38873333333333326	6.396933333333335	1
818.6242618189044	0.39229999999999987	6.3980000000000015	1
818.6242618189044	0.39229999999999987	6.3992	1
818.3300844422898	0.3929666666666666	6.378000000000001	1
817.7341918773304	0.3873999999999999	6.378000000000001	1
817.7341918773304	0.3828999999999999	6.311866666666666	1
817.7330566744957	0.38396666666666657	6.316533333333333	1
817.7330566744957	0.38413333333333327	6.405200000000001	1
817.3346801716104	0.3863666666666666	6.498933333333333	1
816.8405869209976	0.3924333333333332	6.5928	1
816.8405869209976	0.38223333333333326	6.601066666666667	1
816.5422594610047	0.3909666666666665	6.5844000000000005	1
816.5422594610047	0.3948333333333332	6.3616	1
815.7407156063559	0.3968333333333332	6.112666666666668	1
815.7407156063559	0.3968333333333332	6.141066666666666	1
815.3116529641411	0.3806999999999999	6.212	1
815.2587044260292	0.3895999999999999	6.212	1
815.2587044260292	0.38946666666666657	6.345866666666668	1
815.2585941307618	0.38846666666666657	6.5280000000000005	1
815.2585941307618	0.38583333333333325	6.7118666666666655	1
815.1171117595612	0.3946666666666666	6.827466666666666	1
814.766230448898	0.37633333333333324	6.640400000000001	1
814.766230448898	0.39389999999999986	6.599200000000001	1
814.7671008985252	0.38746666666666657	6.5516	1
814.7671008985252	0.38596666666666657	6.338933333333333	1
814.231993139032	0.3878666666666665	6.007466666666667	1
814.231993139032	0.3878666666666665	6.310133333333333	1
813.9811947139216	0.38196666666666657	6.434	1
813.4450902072398	0.3861333333333332	6.434	1
813.4450902072398	0.3930666666666665	6.131066666666667	1
813.0991574062023	0.3939666666666666	6.206666666666667	1
813.0991574062023	0.38956666666666656	6.415600000000001	1
813.1954778435647	0.3820999999999999	6.526000000000001	1
812.7998966274247	0.38893333333333324	6.5052	1
812.7998966274247	0.3895999999999999	6.207466666666667	1
812.0176506443286	0.38113333333333327	6.194133333333333	1
812.0176506443286	0.39206666666666656	6.099600000000001	1
811.8759921320584	0.3806333333333332	6.2588	1
811.8760345408697	0.3853333333333332	6.2965333333333335	1
811.8760345408697	0.3853333333333332	6.319733333333334	1
811.8759948855331	0.38923333333333326	6.3111999999999995	1
811.8759948855331	0.39266666666666655	6.3111999999999995	1
811.4842947743294	0.3876666666666666	6.271866666666667	1
811.4842947743294	0.3953999999999999	6.442666666666667	1
811.4334472410648	0.38516666666666655	6.541333333333333	1
811.3385221969789	0.39329999999999987	6.7325333333333335	1
811.3385221969789	0.38966666666666655	6.738533333333333	1
811.0457638457865	0.39559999999999984	6.657333333333333	1
811.0457638457865	0.3909999999999999	6.591866666666666	1
810.6548543530525	0.3870999999999999	6.6816	1
810.2658290456035	0.3877666666666666	6.5713333333333335	1
810.2658290456035	0.3877666666666666	6.365066666666667	1
809.7790421324424	0.3973333333333332	6.432933333333334	1
809.7790421324424	0.3871333333333333	6.432933333333334	1
809.482344965045	0.3776333333333332	6.437866666666667	1
809.482344965045	0.3828333333333332	6.4097333333333335	1
809.392011853672	0.39116666666666655	6.328	1
808.6116260792639	0.38696666666666657	6.371600000000001	1
808.6116260792639	0.39543333333333325	6.3689333333333344	1
808.2266821057233	0.39516666666666656	6.7612000000000005	1
808.2266821057233	0.38043333333333323	6.8394666666666675	1
808.2267430183074	0.39093333333333324	6.828	1
808.1323235188448	0.3846333333333332	6.255466666666666	1
808.1323235188448	0.39059999999999995	6.312799999999999	1
808.0334822900625	0.39059999999999995	6.814266666666667	1
808.0334822900625	0.38656666666666656	6.814266666666667	1
807.7441769958882	0.3905999999999999	6.7668	1
807.7441769958882	0.3904999999999999	7.045333333333333	1
807.3581111075302	0.38553333333333323	6.364400000000001	1
806.9707344175451	0.38193333333333324	6.432	1
806.9707344175451	0.3907333333333332	7.046666666666667	1
806.4887353471557	0.38323333333333326	7.066000000000001	1
806.4887353471557	0.3946999999999999	6.874266666666665	1
806.1977451560558	0.37696666666666656	6.709466666666668	1
806.0048386236867	0.3903333333333332	6.807066666666667	1
806.0048386236867	0.3850333333333332	6.889466666666667	1
805.0992752730157	0.3850333333333332	6.7161333333333335	1
805.0992752730157	0.39416666666666655	6.668	1
804.9884599856506	0.3921999999999999	6.668	1
804.9884599856506	0.3929999999999999	6.684266666666666	1
804.8544842228257	0.38623333333333326	6.6954666666666665	1
804.8544639656584	0.38819999999999993	6.703866666666666	1
804.8544639656584	0.3799999999999999	6.6724	1
804.562089281085	0.3937333333333332	6.2936	1
804.562089281085	0.3966333333333332	6.376533333333334	1
804.3751274534322	0.38079999999999986	6.611866666666667	1
804.0846365939361	0.38646666666666657	6.6828	1
804.0846365939361	0.3835999999999999	6.109333333333333	1
803.9495885332346	0.3835999999999999	5.928533333333334	1
803.9495885332346	0.4014666666666666	5.580133333333333	1
803.7007535552056	0.39003333333333323	5.580133333333333	1
803.7007535552056	0.3831333333333332	5.3566666666666665	1
803.2241415576576	0.38119999999999993	5.134666666666666	1
803.2244008980974	0.38333333333333325	3.7774666666666668	1
803.2244008980974	0.38943333333333324	3.722133333333333	1
802.8398867759631	0.38789999999999986	2.680933333333333	1
802.8398867759631	0.37669999999999987	2.5332000000000003	1
802.4613434225041	0.3847999999999999	1.7377333333333331	1
801.6025555574345	0.3942333333333332	1.3079999999999998	1
801.6025555574345	0.3773666666666666	0.39093333333333324	1
801.6022262237558	0.3844999999999999	0.36026666666666657	1
801.6022262237558	0.3844999999999999	0.3566666666666666	1
801.4139437750995	0.38589999999999997	0.2799999999999998	1
801.4139437750995	0.3785333333333332	0.2799999999999998	1
801.2222695993615	0.3871333333333332	0.20040000000000016	1
801.2222192387695	0.3897666666666666	0.2005333333333335	1
801.2222192387695	0.3922666666666666	0.2005333333333335	1
801.1276918406844	0.3806333333333332	0.20066666666666683	1
801.1276918406844	0.38076666666666653	0.20000000000000018	1
800.8432433014669	0.38553333333333323	0.11840000000000007	1
800.3676923912943	0.39526666666666654	0.07586666666666673	1
800.3676923912943	0.39826666666666655	0.040000000000000036	1
800.3677468393528	0.39019999999999994	0.040000000000000036	1
800.3677468393528	0.39019999999999994	0.040000000000000036	1
