wavelength(nm)	flourescence PMT(V)	ti_saph Power (V)	Gain (V)
800.136130286957	0.3845666666666666	0.03973333333333337	1
800.136130286957	0.39206666666666656	0.03973333333333337	1
800.3697602029621	0.39266666666666655	0.040000000000000036	1
800.3697602029621	0.38593333333333324	0.040000000000000036	1
800.3697602029621	0.39273333333333327	0.040000000000000036	1
801.127415569947	0.39206666666666656	0.09186666666666675	1
801.127415569947	0.3847666666666666	0.17453333333333348	1
801.1277685074955	0.39016666666666655	0.17573333333333346	1
801.1277685074955	0.3942999999999999	0.1848000000000002	1
801.2243659187416	0.39189999999999986	0.1984000000000002	1
801.2243659187416	0.38659999999999994	0.20000000000000018	1
801.2243659187416	0.37876666666666653	0.20493333333333352	1
801.4153178001632	0.37876666666666653	0.2661333333333333	1
801.4153178001632	0.40039999999999987	0.3042666666666666	1
801.606149754959	0.3945333333333332	0.3042666666666666	1
801.606149754959	0.3830333333333332	0.35999999999999993	1
802.3684662740327	0.3929999999999999	0.35999999999999993	1
802.3684662740327	0.38356666666666656	1.2434666666666667	1
802.3684662740327	0.37766666666666654	1.9163999999999999	1
802.846476145552	0.3816999999999999	2.0343999999999998	1
802.846476145552	0.39593333333333325	2.353066666666667	1
803.2297972821497	0.39889999999999987	3.0798666666666668	1
803.2297972821497	0.3938666666666666	3.6107999999999993	1
803.7062020920553	0.38596666666666657	4.393066666666667	1
803.7062020920553	0.38596666666666657	5.275866666666666	1
803.7062020920553	0.40493333333333326	5.326933333333332	1
803.9916634596423	0.38879999999999987	5.326933333333332	1
803.9916634596423	0.3823666666666666	5.5863999999999985	1
804.3760998421167	0.38866666666666655	5.985333333333333	1
804.3760998421167	0.39336666666666653	6.146933333333333	1
804.3760998421167	0.39706666666666657	6.134533333333334	1
804.3776835689589	0.40013333333333323	6.098133333333333	1
804.3776835689589	0.40409999999999985	6.059866666666667	1
804.8575560788224	0.39179999999999987	6.195333333333333	1
804.8575560788224	0.3942999999999999	6.211599999999999	1
804.8575560788224	0.3870999999999999	6.202266666666666	1
804.8575560788224	0.38696666666666657	6.206266666666666	1
805.2403186786305	0.38696666666666657	6.224666666666667	1
805.2403186786305	0.39329999999999987	6.224666666666667	1
805.2403186786305	0.3799333333333332	6.4616	1
806.0096792115821	0.37673333333333325	6.512133333333333	1
806.0096792115821	0.38986666666666653	6.431066666666667	1
806.491765095124	0.3919666666666666	6.351066666666667	1
806.491765095124	0.38256666666666655	6.514000000000001	1
806.491765095124	0.3850999999999999	6.085999999999999	1
806.9736521639928	0.3927333333333332	6.124133333333334	1
806.9736521639928	0.4075666666666666	6.323066666666667	1
807.2634238361852	0.3858999999999999	6.302933333333334	1
807.2634238361852	0.3858999999999999	6.188533333333333	1
807.3575444726281	0.3799999999999999	5.995333333333333	1
807.3575444726281	0.3870999999999999	5.995333333333333	1
807.3575444726281	0.39443333333333325	6.261733333333333	1
808.0383471308355	0.3870999999999999	6.450399999999999	1
808.0383471308355	0.3881333333333332	6.387733333333334	1
808.1335643118742	0.3891333333333332	5.894933333333333	1
808.1335643118742	0.3871666666666666	5.7641333333333336	1
808.2314117290355	0.3848999999999999	5.948	1
808.2314117290355	0.38846666666666657	6.158933333333333	1
808.2314117290355	0.3869999999999999	6.1584	1
808.5210359230538	0.3881333333333332	6.1946666666666665	1
808.5210359230538	0.3881333333333332	6.147200000000001	1
809.3914449661254	0.39509999999999984	6.1210666666666675	1
809.3914449661254	0.3944999999999999	6.1210666666666675	1
809.7828818961757	0.38269999999999993	6.122666666666667	1
809.7828818961757	0.3921999999999999	6.121200000000001	1
810.1723191017924	0.3929666666666666	6.138533333333334	1
810.1723191017924	0.38883333333333325	6.237466666666666	1
810.1723191017924	0.3873666666666665	6.1732	1
810.6976113039715	0.3909999999999999	6.201600000000001	1
810.6976113039715	0.39103333333333323	6.332933333333335	1
810.656992065579	0.3894333333333332	6.3912	1
810.656992065579	0.38829999999999987	6.358800000000001	1
810.656992065579	0.3900999999999999	6.262666666666666	1
811.3413201688013	0.3900999999999999	6.282933333333332	1
811.3413201688013	0.3840333333333332	6.282933333333332	1
811.3422024526246	0.38616666666666655	6.280933333333333	1
811.3422024526246	0.40013333333333323	6.280133333333334	1
811.5325436379176	0.3863666666666666	6.277866666666666	1
811.5325436379176	0.3850666666666666	5.949333333333334	1
811.5325436379176	0.4020666666666665	6.040533333333333	1
811.8280821062035	0.3900666666666666	6.0304	1
811.8280821062035	0.3939666666666666	6.0104	1
811.9263743360164	0.38803333333333323	5.9985333333333335	1
811.9263743360164	0.39549999999999985	5.94	1
812.7072754095992	0.39549999999999985	5.954933333333333	1
812.7072754095992	0.3943666666666666	5.840533333333333	1
812.7072754095992	0.38956666666666656	5.840533333333333	1
813.0565832243719	0.38853333333333323	5.9454666666666665	1
813.0565832243719	0.3922666666666666	6.026666666666666	1
813.0565832243719	0.3920999999999999	5.986933333333333	1
813.0565832243719	0.3888666666666666	6.042133333333334	1
813.0565832243719	0.3965999999999999	6.1496	1
813.0565832243719	0.3915666666666665	6.112400000000001	1
813.0565832243719	0.38119999999999993	6.039200000000001	1
813.9846682462506	0.40093333333333325	5.931866666666666	1
813.9846682462506	0.38339999999999996	5.593199999999999	1
814.771999104698	0.38339999999999996	6.052533333333333	1
814.771999104698	0.39756666666666657	6.1856	1
814.7716098700537	0.3898666666666666	6.1856	1
814.7716098700537	0.3911999999999999	6.277466666666666	1
814.7716098700537	0.3874333333333332	6.28	1
810.1662472524634	0.3812999999999999	6.269866666666666	1
810.1662472524634	0.39149999999999985	6.262	1
815.264761214574	0.39306666666666656	6.269866666666666	1
815.264761214574	0.3971999999999999	6.249866666666667	1
815.2650532139974	0.3942666666666666	6.23	1
815.2650532139974	0.39939999999999987	6.154	1
816.2496834182192	0.3881666666666666	5.986	1
816.2496834182192	0.3881666666666666	5.971333333333334	1
816.2496834182192	0.38776666666666654	5.9526666666666666	1
816.8436057569443	0.3923999999999999	5.9526666666666666	1
816.8436057569443	0.39349999999999996	6.198666666666666	1
816.8436182546525	0.3871333333333332	6.199866666666667	1
816.8436182546525	0.3982666666666666	6.178266666666667	1
817.6339520897194	0.3783666666666665	6.139333333333334	1
817.6339520897194	0.39253333333333323	6.143066666666667	1
817.6339520897194	0.38789999999999986	6.136933333333333	1
817.5920047295131	0.3921999999999999	6.1552	1
817.5920047295131	0.3980666666666665	6.109733333333334	1
818.628493529537	0.3857999999999999	6.1056	1
818.628493529537	0.39689999999999986	6.063066666666667	1
818.6294403410808	0.39689999999999986	6.0336	1
818.6294403410808	0.3888999999999999	5.965199999999999	1
818.6294403410808	0.3898999999999999	5.965199999999999	1
818.7276802680012	0.3919666666666666	6.1084	1
818.7276802680012	0.38179999999999986	6.031066666666667	1
819.7253448710934	0.39566666666666656	5.9757333333333325	1
819.7253448710934	0.3822666666666666	6.1080000000000005	1
820.6655053902819	0.38356666666666656	6.1240000000000006	1
820.6655053902819	0.38483333333333325	6.2173333333333325	1
820.6655053902819	0.4002333333333332	6.290133333333333	1
820.622321009507	0.3969666666666665	6.362800000000001	1
820.622321009507	0.3852666666666666	6.3306666666666676	1
821.0228330433906	0.3852666666666666	6.442533333333334	1
821.0228330433906	0.3781666666666666	6.408533333333334	1
821.1204789302643	0.39866666666666656	6.408533333333334	1
821.1204789302643	0.3745666666666666	6.357066666666668	1
821.1204789302643	0.3823999999999999	6.372400000000001	1
821.8210791696712	0.3896999999999999	6.490399999999999	1
821.8210791696712	0.40083333333333326	6.600666666666668	1
822.2262147670162	0.38693333333333324	6.5132	1
822.2262147670162	0.3936333333333332	6.635599999999999	1
822.3169066842561	0.3991333333333332	6.693333333333333	1
822.3169066842561	0.38493333333333324	6.731066666666666	1
822.3169066842561	0.3825333333333332	6.7657333333333325	1
822.7228621864834	0.3845999999999999	6.792933333333334	1
822.7228621864834	0.3845999999999999	6.8709333333333324	1
823.5278194374187	0.38483333333333325	6.8709333333333324	1
823.5278194374187	0.3931666666666666	6.698266666666667	1
823.5305159746387	0.3850333333333332	6.674533333333334	1
823.5305159746387	0.39269999999999994	6.730666666666667	1
823.5305159746387	0.3966333333333333	6.927466666666666	1
824.0779222322032	0.38853333333333323	6.997599999999999	1
824.0779222322032	0.39203333333333323	6.727866666666667	1
824.3865058297515	0.39913333333333323	6.747866666666667	1
824.3865058297515	0.3919666666666666	6.7641333333333336	1
824.6928809522744	0.39416666666666655	6.788133333333333	1
824.6928809522744	0.39416666666666655	6.800933333333334	1
824.6928809522744	0.39059999999999995	6.854933333333333	1
824.7891697065963	0.3874999999999999	6.854933333333333	1
824.7891697065963	0.3914666666666666	6.874	1
825.6006503084394	0.39149999999999985	6.918133333333332	1
825.6006503084394	0.38646666666666657	6.712933333333333	1
825.6006612307327	0.3875999999999999	6.685599999999999	1
825.6006612307327	0.3967999999999999	6.689466666666667	1
825.6006612307327	0.39779999999999993	6.6054666666666675	1
826.1024892577567	0.3824333333333332	6.6864	1
826.1024892577567	0.3872666666666666	6.688266666666666	1
826.1067637758251	0.38556666666666656	6.6819999999999995	1
826.1067637758251	0.38556666666666656	6.781866666666668	1
826.9189198054459	0.3847666666666666	6.912800000000001	1
826.9189198054459	0.39106666666666656	6.912800000000001	1
826.9189198054459	0.3854999999999999	6.933466666666667	1
826.9189198054459	0.3846333333333332	6.802666666666666	1
826.9189198054459	0.39043333333333324	6.851199999999999	1
827.8310558267485	0.38883333333333325	6.849866666666665	1
827.8310558267485	0.38179999999999986	6.758933333333334	1
828.137143580286	0.39126666666666654	6.7604	1
828.137143580286	0.38829999999999987	6.9232000000000005	1
828.137143580286	0.3890999999999999	7.0568	1
828.3805332774974	0.3843666666666665	6.997999999999998	1
828.3805332774974	0.3843666666666665	7.026533333333333	1
828.6434433946945	0.3890999999999999	7.043066666666667	1
828.6434433946945	0.3909666666666665	7.043066666666667	1
829.2572863809108	0.3899999999999999	7.020666666666666	1
829.2572863809108	0.3913999999999999	7.217466666666666	1
829.2572863809108	0.39266666666666655	7.2557333333333345	1
829.4625706498803	0.38106666666666655	7.114933333333333	1
829.4625706498803	0.3966999999999999	6.999200000000001	1
829.8700210969821	0.3937999999999999	7.1436	1
829.8700210969821	0.3950333333333332	7.399733333333332	1
829.8700110611009	0.39093333333333324	7.276266666666667	1
829.8700110611009	0.3823666666666666	7.087599999999999	1
829.8700110611009	0.40766666666666657	7.020533333333333	1
830.3346923728933	0.40766666666666657	7.041333333333332	1
830.3346923728933	0.39006666666666656	7.041333333333332	1
830.5846333816993	0.3886333333333333	6.96	1
830.5846333816993	0.3861333333333333	7.058533333333333	1
831.1992891947458	0.3899999999999999	7.231066666666666	1
831.1992891947458	0.38939999999999986	7.319466666666667	1
831.1992891947458	0.37466666666666654	7.317999999999999	1
831.7113825441463	0.3944999999999999	7.294399999999999	1
831.7113825441463	0.3922333333333332	7.273999999999999	1
831.7103955988391	0.39403333333333324	7.233733333333333	1
831.7103955988391	0.3901333333333333	7.1870666666666665	1
832.1228366487636	0.3901333333333333	6.7988	1
832.1228366487636	0.3978999999999999	6.707866666666666	1
832.1228366487636	0.3850333333333332	6.707866666666666	1
832.5926463454158	0.3923333333333332	6.741333333333333	1
832.5926463454158	0.3906333333333332	6.809333333333333	1
832.9978076039226	0.3940333333333332	6.9101333333333335	1
832.9978076039226	0.38929999999999987	7.128	1
833.3599260958376	0.3875999999999999	7.155466666666666	1
833.3599260958376	0.4004333333333332	7.194399999999999	1
833.3599260958376	0.3968333333333332	7.0616	1
833.8721083022182	0.39649999999999985	6.9768	1
833.8721083022182	0.4068666666666666	6.9056	1
833.9761936442127	0.3844999999999999	6.924133333333333	1
833.9761936442127	0.3844999999999999	6.942266666666668	1
834.5993944807858	0.40449999999999986	6.859733333333334	1
834.5993944807858	0.40263333333333323	6.859733333333334	1
834.5993944807858	0.4011333333333332	6.9501333333333335	1
835.3594417761076	0.4044333333333332	6.964933333333334	1
835.3594417761076	0.40349999999999997	7.124399999999999	1
835.4767525916141	0.4106666666666665	7.2307999999999995	1
835.4767525916141	0.4034666666666666	7.2307999999999995	1
835.6329291875734	0.4191999999999999	7.117733333333333	1
835.6329291875734	0.4230999999999999	7.033333333333333	1
835.6329291875734	0.43119999999999986	7.07	1
836.5160551642584	0.46149999999999985	7.222133333333333	1
836.5160551642584	0.46149999999999985	7.1033333333333335	1
836.7780357167178	0.4646666666666666	7.0654666666666675	1
836.7780357167178	0.4645999999999998	7.0654666666666675	1
837.0335695083951	0.4918999999999999	7.0944	1
837.0335695083951	0.5086666666666666	7.138133333333333	1
837.0335695083951	0.5198999999999999	7.149066666666666	1
837.3456906067191	0.5187999999999999	7.204533333333332	1
837.3456906067191	0.5463	7.214933333333334	1
837.7616808360523	0.5549	6.974933333333333	1
837.7616808360523	0.5599	6.923066666666665	1
838.0761944485887	0.5732999999999998	7.0504	1
838.0761944485887	0.6199999999999999	7.201866666666667	1
838.0761944485887	0.6199999999999999	7.214399999999999	1
838.4921867409304	0.6189333333333332	7.124266666666665	1
838.4921867409304	0.6555666666666665	7.124266666666665	1
839.1200431362664	0.7002666666666666	7.073466666666667	1
839.1200431362664	0.7216666666666666	7.025199999999998	1
839.277810331716	0.7353666666666665	6.948266666666665	1
839.277810331716	0.7223666666666666	6.807733333333332	1
839.277810331716	0.7704333333333332	7.020133333333333	1
839.4846843679587	0.7646333333333333	7.060133333333333	1
839.4846843679587	0.8086333333333332	7.0984	1
840.8099265301083	0.8383333333333334	7.144666666666666	1
840.8099265301083	0.9503666666666667	7.169333333333334	1
840.6919035155422	0.9503666666666667	7.1892	1
840.6919035155422	1.0210666666666663	7.158666666666666	1
840.6919035155422	1.0151	7.158666666666666	1
840.8983913024617	1.0242333333333333	6.878799999999999	1
840.8983913024617	1.0421666666666667	6.828533333333334	1
841.2146353629936	1.0491666666666666	6.8919999999999995	1
841.2146353629936	1.1080333333333332	7.038933333333333	1
841.3190001038264	1.1724666666666665	7.038666666666666	1
841.3190001038264	1.1896666666666667	7.015866666666668	1
841.3190001038264	1.2409999999999999	7.037333333333333	1
841.6341019572104	1.2431999999999996	6.831466666666667	1
841.6341019572104	1.2416999999999998	6.6852	1
841.9490795998274	1.2416999999999998	6.730266666666666	1
841.9490795998274	1.3096999999999999	6.709066666666666	1
842.4141776169225	1.4304	6.709066666666666	1
842.4141776169225	1.4590333333333332	6.674133333333334	1
842.4141776169225	1.6902	6.946533333333334	1
842.9011645126658	1.8474333333333335	7.112666666666668	1
842.9011645126658	1.8926333333333332	7.030933333333333	1
843.1101885533662	1.9394333333333331	7.050799999999999	1
843.4285397247277	2.0307	7.229866666666667	0.40000000000000013
843.4285397247277	1.276433333333333	7.153466666666667	0.9
843.4285397247277	1.0720333333333334	6.3724	1
844.4245134097129	1.0720333333333334	5.5241333333333325	1
844.4245134097129	1.5424	5.383733333333333	1
844.6994876632001	1.9977666666666665	5.383733333333333	1
844.6994876632001	1.6511999999999998	3.3419999999999996	1
844.9068823766768	1.5670666666666666	2.9968	1
844.9068823766768	1.5169	2.6727999999999996	1
842.1632725204696	1.8417333333333332	6.723866666666666	1
842.1632725204696	1.4652333333333332	6.723866666666666	1
841.8477259064351	1.4234	6.646000000000001	1
841.8477259064351	1.3154666666666666	6.763333333333334	1
841.8477259064351	1.2403666666666666	6.7324	1
841.5320005226712	1.2266666666666666	6.926533333333333	1
841.5320005226712	1.1719666666666666	6.929066666666667	1
841.3236525247082	1.1736666666666666	6.952800000000001	1
841.3236525247082	1.160033333333333	6.890133333333333	1
840.9002295455215	1.1026333333333331	6.9665333333333335	1
840.9002295455215	1.0354999999999999	6.919866666666665	1
840.9002295455215	1.0354999999999999	6.9189333333333325	1
840.8986848650522	1.0374999999999999	6.9189333333333325	1
840.8986848650522	1.0326999999999997	6.948799999999999	1
840.4797538616527	0.9712666666666665	7.0607999999999995	1
840.4797538616527	0.9509	7.0764000000000005	1
839.5345258228331	0.9150666666666666	7.122800000000001	1
839.5345258228331	0.7965666666666665	7.194133333333332	1
839.5345258228331	0.7792333333333332	7.204266666666667	1
839.3278764213576	0.7789666666666665	7.197866666666665	1
839.3278764213576	0.7482333333333332	7.2336	1
839.4033766391092	0.7526999999999999	7.2022666666666675	1
839.4033766391092	0.7425	7.170666666666667	1
839.0177281322389	0.7425	7.065199999999998	1
839.0177281322389	0.7029666666666665	7.065199999999998	1
839.0177281322389	0.6646333333333332	6.952133333333333	1
838.2321177702751	0.6509999999999998	6.902933333333333	1
838.2321177702751	0.6082333333333332	6.912666666666667	1
838.2321177702751	0.6054999999999998	7.072266666666666	1
838.2321177702751	0.5666333333333333	6.951466666666665	1
837.3457745143241	0.5672999999999998	6.996933333333333	1
837.3457745143241	0.5363333333333332	7.178266666666665	1
837.3457745143241	0.5161666666666666	7.1605333333333325	1
837.3457963932678	0.5250666666666666	7.175999999999999	1
837.3457963932678	0.5029999999999999	6.956666666666667	1
837.0341638374887	0.5029999999999999	6.986000000000001	1
837.0341638374887	0.49929999999999986	7.119200000000001	1
837.0341638374887	0.4928666666666666	7.119200000000001	1
837.0341638374887	0.49156666666666654	7.2030666666666665	1
837.0341638374887	0.47343333333333326	7.1528	1
836.6567313760668	0.4583999999999999	7.201066666666666	1
836.6567313760668	0.44149999999999995	7.0196000000000005	1
835.6316354968641	0.43863333333333326	6.978533333333331	1
835.6316354968641	0.4223666666666666	7.061866666666666	1
835.47694479345	0.42783333333333323	7.200666666666666	1
835.47694479345	0.41246666666666654	7.2376	1
835.47694479345	0.4152999999999999	7.2409333333333326	1
835.2181905462531	0.4152999999999999	7.061333333333332	1
835.2181905462531	0.39636666666666653	6.969066666666666	1
834.750529432975	0.3962666666666666	6.969066666666666	1
834.750529432975	0.40383333333333327	6.958666666666667	1
833.9762146473422	0.3893666666666666	7.101466666666665	1
833.9762146473422	0.40839999999999993	7.041200000000001	1
833.9762146473422	0.3942999999999999	6.979866666666667	1
833.9226780478575	0.39889999999999987	6.963066666666667	1
833.9226780478575	0.38916666666666655	7.0779999999999985	1
833.3599434081805	0.3931333333333332	7.124399999999999	1
833.3599434081805	0.39813333333333323	7.2161333333333335	1
832.9988536414133	0.3833666666666665	7.180133333333333	1
832.9988536414133	0.3833666666666665	7.139600000000001	1
832.9988536414133	0.3915999999999999	7.031066666666666	1
832.7433081059443	0.38879999999999987	7.031066666666666	1
832.7433081059443	0.39379999999999993	6.9496	1
832.1228077229315	0.38393333333333324	6.885866666666666	1
832.1228077229315	0.3887999999999999	6.790133333333333	1
831.7113311287791	0.38956666666666656	7.0184	1
831.7113311287791	0.39623333333333327	7.045733333333333	1
831.7113238419663	0.3894999999999999	7.1492	1
831.7113238419663	0.38876666666666654	7.2649333333333335	1
831.7113238419663	0.39483333333333326	7.353466666666667	1
830.8899922153621	0.39736666666666653	7.409866666666665	1
830.8899922153621	0.39736666666666653	7.267066666666667	1
830.4775736703127	0.39833333333333326	6.824133333333334	1
830.4775736703127	0.3814666666666666	6.824133333333334	1
830.0749895321619	0.40053333333333324	6.7692000000000005	1
830.0749895321619	0.3841999999999999	7.037333333333333	1
830.0749895321619	0.4027666666666665	7.077333333333333	1
829.8700037377557	0.4012333333333332	7.230133333333333	1
829.8700037377557	0.39353333333333324	7.348533333333333	1
829.4606629403356	0.3997999999999999	7.132666666666667	1
829.4606629403356	0.3896999999999999	6.954533333333332	1
829.2562304238819	0.38929999999999987	6.940666666666666	1
829.2562304238819	0.3919999999999999	7.210799999999999	1
829.2562304238819	0.3919999999999999	7.007866666666666	1
828.6423269039607	0.3811999999999999	6.954666666666665	1
828.6423269039607	0.3946333333333332	6.954666666666665	1
828.2370521978736	0.38816666666666655	6.924133333333333	1
828.2370521978736	0.3849333333333332	6.9517333333333315	1
828.1369719191762	0.38846666666666657	6.9967999999999995	1
828.1369719191762	0.3965999999999999	6.964933333333334	1
828.1369719191762	0.38896666666666657	6.880533333333333	1
828.1369719191762	0.3992333333333332	6.928800000000001	1
828.1369719191762	0.39166666666666655	6.983866666666666	1
827.0180639032615	0.38693333333333324	6.755066666666667	1
827.0180639032615	0.39869999999999983	6.7728	1
826.308733961325	0.39869999999999983	6.843066666666665	1
826.308733961325	0.3818666666666666	6.944000000000001	1
826.308733961325	0.3924666666666666	6.944000000000001	1
826.1039917930655	0.38369999999999993	6.8572	1
826.1039917930655	0.38296666666666657	6.823333333333333	1
825.6999376166342	0.3854999999999999	6.763466666666667	1
825.6999376166342	0.3874999999999999	6.7756	1
825.6006052837049	0.37606666666666655	6.662800000000001	1
825.6006052837049	0.38996666666666663	6.565066666666667	1
825.6006052837049	0.38689999999999986	6.4926666666666675	1
824.7928007794671	0.38723333333333326	6.614133333333333	1
824.7928007794671	0.39006666666666656	6.527066666666666	1
824.389295129885	0.39006666666666656	6.6228	1
824.389295129885	0.39439999999999986	6.769066666666667	1
824.2396483299929	0.39256666666666656	6.769066666666667	1
824.2396483299929	0.39576666666666654	6.7616000000000005	1
824.2396483299929	0.3902999999999999	6.928133333333335	1
823.8825213286267	0.3853333333333332	6.959066666666666	1
823.8825213286267	0.3882999999999999	6.7957333333333345	1
823.5293650344338	0.3851333333333332	6.628666666666667	1
823.5293650344338	0.3970999999999999	6.578266666666667	1
822.7228124543661	0.3933999999999999	6.577733333333334	1
822.7228124543661	0.38856666666666656	6.814	1
822.7228124543661	0.3823999999999999	6.807333333333333	1
822.3217703409825	0.3823999999999999	6.628933333333333	1
822.3217703409825	0.3882333333333332	6.661333333333332	1
822.2237190284073	0.3949999999999999	6.661333333333332	1
822.2237190284073	0.38179999999999986	6.664133333333333	1
821.8220319608689	0.39003333333333323	6.6419999999999995	1
821.8220319608689	0.3867666666666666	6.554266666666667	1
821.8220319608689	0.3873999999999999	6.579866666666667	1
821.8202926994371	0.3953999999999999	6.552000000000001	1
821.8202926994371	0.38369999999999993	6.496533333333333	1
821.0221032430309	0.3870666666666666	6.5149333333333335	1
821.0221032430309	0.38776666666666654	6.494933333333333	1
820.6222130099463	0.38096666666666656	6.384	1
820.6222130099463	0.38096666666666656	6.173466666666666	1
820.6222130099463	0.3844333333333332	6.211333333333334	1
820.6223928484371	0.3892333333333332	6.211333333333334	1
820.6223928484371	0.4028333333333332	6.346266666666667	1
819.8233319347845	0.3876333333333332	6.222799999999999	1
819.8233319347845	0.3925999999999999	6.218933333333333	1
818.7298058208653	0.4003999999999999	6.085066666666666	1
818.7298058208653	0.3955999999999999	6.129200000000001	1
818.7298058208653	0.3911333333333333	6.126533333333334	1
818.6252479557688	0.39463333333333317	6.0776	1
818.6252479557688	0.3833999999999999	6.127866666666666	1
818.4857682544176	0.3901666666666665	6.078533333333334	1
818.4857682544176	0.3901666666666665	5.899333333333333	1
817.6360974489625	0.3939666666666666	5.924666666666667	1
817.6360974489625	0.3795999999999999	5.924666666666667	1
817.6360974489625	0.3865333333333333	5.960933333333333	1
817.6341731049589	0.3989666666666666	6.040266666666667	1
817.6341731049589	0.3986999999999999	6.113466666666667	1
816.8445981917743	0.3772333333333332	6.278533333333333	1
816.8445981917743	0.3867666666666666	6.280133333333334	1
816.2497754397868	0.38573333333333326	6.1752	1
816.2497754397868	0.38696666666666657	5.905733333333333	1
816.2497754397868	0.3899333333333332	5.875066666666666	1
815.2646178802028	0.3854999999999999	5.825466666666666	1
815.2646178802028	0.3854999999999999	6.020933333333333	1
815.2603769461787	0.38109999999999983	6.020933333333333	1
815.2603769461787	0.39023333333333327	6.1608	1
815.1184598007018	0.37809999999999994	6.28	1
815.1184598007018	0.3963333333333332	6.300800000000001	1
815.1184598007018	0.3844333333333332	6.322266666666667	1
814.7710748230318	0.38719999999999993	6.219599999999999	1
814.7710748230318	0.3943333333333332	6.271999999999999	1
814.771119884248	0.3913999999999999	6.279599999999999	1
814.771119884248	0.39803333333333324	5.809066666666666	1
813.9821280950997	0.38603333333333323	5.847333333333333	1
813.9821280950997	0.39986666666666654	6.040133333333333	1
813.9821280950997	0.39986666666666654	6.051200000000001	1
813.9847476872882	0.3937666666666666	5.913866666666667	1
813.9847476872882	0.3827999999999999	5.913866666666667	1
813.0568046877414	0.3857333333333332	5.906133333333333	1
813.0568046877414	0.3917666666666666	6.0356000000000005	1
813.0574183132416	0.39416666666666655	6.066266666666667	1
813.0574183132416	0.3805333333333332	6.158933333333334	1
813.0574183132416	0.39706666666666657	6.013599999999999	1
811.8292178906086	0.4000666666666666	6.039466666666667	1
811.8292178906086	0.38929999999999987	6.1024	1
811.8291203679022	0.4025999999999999	6.126266666666667	1
811.8291203679022	0.39406666666666657	6.163733333333334	1
811.4372663421549	0.39406666666666657	6.133733333333333	1
811.4372663421549	0.39103333333333323	6.0457333333333345	1
811.4372663421549	0.3919999999999999	6.0457333333333345	1
811.3434154944136	0.3877999999999999	6.010933333333333	1
811.3434154944136	0.3861333333333333	6.1601333333333335	1
805.9968724710114	0.38669999999999993	5.957333333333333	1
805.9968724710114	0.38923333333333326	6.056666666666667	1
810.561056770674	0.3935999999999999	6.094133333333334	1
810.561056770674	0.3925999999999999	6.1124	1
810.561056770674	0.3927999999999999	6.134533333333334	1
810.2663687697714	0.38843333333333324	6.040266666666668	1
810.2663687697714	0.39066666666666655	6.068133333333334	1
809.6882134170331	0.39066666666666655	6.1068	1
809.6882134170331	0.3870666666666666	5.958799999999999	1
809.6882134170331	0.3947999999999999	5.958799999999999	1
809.6882134170331	0.39123333333333327	5.8276	1
809.6882134170331	0.3953999999999999	5.894933333333333	1
808.2315615536631	0.38689999999999986	5.9959999999999996	1
808.2315615536631	0.38679999999999987	6.0152	1
808.1326956201731	0.3873999999999999	5.893466666666667	1
808.1326956201731	0.38716666666666655	5.8796	1
808.1336964060512	0.3905999999999999	5.9252	1
808.1336964060512	0.39139999999999986	6.194533333333334	1
808.1336964060512	0.38876666666666654	6.567066666666666	1
807.7445710446001	0.38876666666666654	6.572933333333333	1
807.7445710446001	0.39376666666666654	6.085866666666666	1
807.2643660898337	0.39486666666666653	6.085866666666666	1
807.2643660898337	0.3837999999999999	6.355733333333334	1
806.969422644042	0.3840333333333333	6.567866666666667	1
806.969422644042	0.3765999999999999	6.252133333333333	1
806.3962527509455	0.39586666666666653	5.944933333333332	1
806.3962527509455	0.38646666666666657	6.1292	1
806.0142924913815	0.39373333333333327	6.1032	1
806.0142924913815	0.3814999999999999	6.1870666666666665	1
806.0086525910227	0.3964666666666666	6.278933333333333	1
806.0086525910227	0.38803333333333323	6.273733333333333	1
804.8596456861488	0.38803333333333323	6.148000000000001	1
804.8596456861488	0.3842666666666666	6.199333333333334	1
804.853964387035	0.3924999999999999	6.199333333333334	1
804.853964387035	0.38633333333333325	6.278533333333333	1
804.7595205895176	0.3872999999999999	6.1979999999999995	1
804.7595205895176	0.3810999999999999	6.0225333333333335	1
804.5131168745393	0.3962333333333332	6.036666666666667	1
804.5131168745393	0.3806333333333332	6.047866666666667	1
804.3789851655677	0.3896999999999999	6.144133333333333	1
804.3789851655677	0.38906666666666656	6.170933333333334	1
803.9926476611663	0.38476666666666653	5.4450666666666665	1
803.9926476611663	0.3831333333333332	5.198266666666666	1
803.6100492178357	0.3831333333333332	5.037733333333334	1
803.6100492178357	0.3975333333333332	4.9132	1
803.2290978021902	0.3917666666666666	4.9132	1
803.2290978021902	0.38793333333333324	3.5034666666666667	1
802.6566420717784	0.38949999999999996	3.3817333333333335	1
802.6566420717784	0.3906333333333332	2.1394666666666664	1
802.4632332473884	0.39433333333333326	1.9204	1
802.4632332473884	0.37549999999999994	1.5519999999999996	1
801.6063248535311	0.39166666666666655	0.4950666666666665	1
801.6063248535311	0.3944666666666666	0.35999999999999993	1
801.4134311715015	0.38929999999999987	0.2869333333333332	1
801.4134311715015	0.3821999999999999	0.26346666666666657	1
801.2253031484975	0.38646666666666657	0.19986666666666683	1
801.2253031484975	0.38646666666666657	0.19720000000000018	1
801.2253031484975	0.3949666666666666	0.19720000000000018	1
801.2252864225921	0.3820666666666666	0.19413333333333352	1
801.2252864225921	0.3821666666666666	0.19400000000000017	1
801.2252864225921	0.38216666666666654	0.1925333333333335	1
801.2252864225921	0.3800999999999999	0.10440000000000009	1
800.3707627531439	0.3931999999999999	0.040000000000000036	1
800.3707627531439	0.38399999999999984	0.040000000000000036	1
800.3708778670947	0.39913333333333323	0.040000000000000036	1
800.3708778670947	0.3931666666666666	0.040000000000000036	1
