wavelength(nm)	flourescence PMT(V)	ti_saph Power (V)	Gain (V)
800.4615206440274	0.3992999999999999	0.040000000000000036	1
800.8436231239119	0.38953333333333323	0.040000000000000036	1
800.8436231239119	0.3919666666666666	0.06986666666666673	1
801.1287295807496	0.38906666666666656	0.17760000000000015	1
801.2226879025565	0.3913999999999999	0.20026666666666684	1
801.2226879025565	0.3913999999999999	0.20066666666666683	1
801.2226755877697	0.3853333333333332	0.20040000000000016	1
801.4155855708651	0.38159999999999994	0.20040000000000016	1
801.4155855708651	0.38106666666666655	0.2249333333333334	1
801.4141293473384	0.3828999999999999	0.2803999999999998	1
801.6053227581641	0.4008999999999999	0.2930666666666665	1
801.6053227581641	0.39383333333333326	0.3605333333333332	1
801.6052568383258	0.3793666666666666	0.3601333333333332	1
801.6052568383258	0.3932333333333332	1.085733333333333	1
801.6052568383258	0.3878666666666666	1.573733333333333	1
802.8447486681912	0.3886999999999999	2.5117333333333334	1
802.8446858482845	0.39356666666666656	2.5201333333333333	1
802.8446858482845	0.39356666666666656	2.5227999999999997	1
803.2233868616112	0.3864999999999999	3.2853333333333334	1
803.5143209929626	0.3896999999999999	3.2853333333333334	1
803.5143209929626	0.39376666666666654	4.129733333333333	1
803.7023445863002	0.3939666666666666	5.026666666666666	1
803.9926328920311	0.37766666666666654	5.6036	1
803.9926328920311	0.3943333333333332	5.896133333333332	1
803.992640127156	0.3917333333333332	5.994666666666667	1
803.992640127156	0.39803333333333324	6.157733333333334	1
803.992640127156	0.38506666666666656	6.579600000000001	1
804.4663672808399	0.3952333333333332	6.6029333333333335	1
804.4663672808399	0.39566666666666656	6.539733333333333	1
804.4663672808399	0.3936333333333332	6.210533333333333	1
804.4663672808399	0.3936333333333332	6.429333333333334	1
804.8557591550882	0.38223333333333326	6.530533333333333	1
804.8557591550882	0.3865999999999999	6.530533333333333	1
804.8557771488032	0.38816666666666655	6.600666666666668	1
804.9478530069362	0.38309999999999994	6.6021333333333345	1
806.0091030690086	0.3903999999999999	6.6972	1
806.0091030690086	0.3873333333333332	6.823733333333333	1
806.0094214044959	0.38616666666666655	7.1164000000000005	1
806.0082769615382	0.39476666666666654	7.1205333333333325	1
806.0082769615382	0.3915999999999999	7.0810666666666675	1
806.3964252770608	0.38946666666666657	6.7396	1
806.8753854256913	0.38573333333333326	6.607333333333333	1
806.8753854256913	0.38573333333333326	6.539466666666667	1
806.8753659788522	0.38546666666666657	6.4770666666666665	1
807.3564404715698	0.3858666666666665	6.4770666666666665	1
807.3564404715698	0.3920999999999999	6.752933333333333	1
807.3596158087537	0.39053333333333323	6.367733333333334	1
807.7436899675569	0.38483333333333325	6.662933333333334	1
807.7436899675569	0.39506666666666657	6.904533333333332	1
807.837967027998	0.3924999999999999	6.868266666666667	1
808.0364718877413	0.4009999999999999	6.88	1
808.0364718877413	0.3861666666666666	6.754266666666666	1
808.1318604335528	0.3982666666666666	6.420400000000001	1
808.1309655039067	0.3982333333333332	6.3992	1
808.1309655039067	0.3982333333333332	6.544533333333333	1
808.2294526363954	0.3868666666666666	6.6364	1
808.4231150102407	0.3929666666666666	6.6364	1
808.4231150102407	0.39043333333333324	6.2838666666666665	1
809.3915992759835	0.3948999999999999	6.312399999999999	1
809.3904339285829	0.38616666666666655	6.4512	1
809.3904339285829	0.38543333333333324	6.4332	1
809.3906807643307	0.3902333333333332	6.452	1
809.7795727814348	0.3842666666666666	6.4632000000000005	1
809.7795727814348	0.39406666666666657	6.556266666666667	1
809.7796492110882	0.3906333333333332	6.429733333333334	1
810.2663887195031	0.3919999999999999	6.267866666666667	1
810.5600252762741	0.3919999999999999	6.4468000000000005	1
810.5600252762741	0.38326666666666653	6.410266666666667	1
810.6539681358082	0.39943333333333325	6.410266666666667	1
810.705699979071	0.38906666666666656	6.383466666666666	1
810.705699979071	0.39576666666666654	6.261866666666666	1
811.3405085308535	0.39106666666666656	6.771733333333334	1
811.4353309480578	0.39213333333333317	6.719999999999999	1
811.4353309480578	0.39553333333333324	6.690799999999999	1
811.437479696491	0.39643333333333325	6.689866666666667	1
811.438559772451	0.3782999999999999	6.5924000000000005	1
811.438559772451	0.3815999999999999	6.4290666666666665	1
811.7799635111788	0.38933333333333325	6.552266666666666	1
811.8789639780409	0.38933333333333325	6.554666666666668	1
811.8789639780409	0.3951333333333332	6.4266666666666685	1
811.8789585242072	0.37856666666666655	6.4266666666666685	1
812.6619775812053	0.38066666666666654	6.377600000000001	1
812.6619775812053	0.3931666666666666	6.419066666666667	1
813.1018597750661	0.39183333333333326	6.138666666666667	1
813.0533218860554	0.40386666666666654	6.402933333333333	1
813.0533218860554	0.3925999999999999	6.4388	1
813.0996136836891	0.4021999999999999	6.303866666666666	1
813.0996202955937	0.3874999999999999	6.220533333333334	1
813.0996202955937	0.39079999999999987	6.193333333333333	1
813.0996202955937	0.38316666666666654	6.4370666666666665	1
813.9821432042304	0.3928333333333332	6.476266666666667	1
813.9821432042304	0.3928333333333332	6.422533333333334	1
813.9824232680987	0.39083333333333325	6.422533333333334	1
814.2316205987331	0.38079999999999986	6.2032	1
814.2316205987331	0.39276666666666654	6.005333333333333	1
814.7710215765961	0.39606666666666657	6.5276	1
814.7699499138533	0.3867333333333332	6.580800000000001	1
814.7699499138533	0.39883333333333326	6.4981333333333335	1
815.117568228178	0.38513333333333327	6.451466666666667	1
815.1165764621918	0.3922666666666666	6.4856	1
815.2594250555549	0.40196666666666653	6.5724	1
815.2594250555549	0.3899999999999999	6.616133333333334	1
815.2624056137814	0.3899999999999999	6.623466666666666	1
815.4131557335013	0.40066666666666656	6.4358666666666675	1
815.4131557335013	0.3822333333333332	6.4358666666666675	1
815.5975061421279	0.3910999999999999	6.378533333333334	1
816.300276234332	0.3935999999999999	6.306000000000001	1
816.300276234332	0.38683333333333325	6.133866666666666	1
816.8418769654104	0.3903333333333332	6.363200000000002	1
816.8419225725858	0.39093333333333324	6.566933333333334	1
816.8419225725858	0.3833999999999999	6.661466666666667	1
817.4329383685722	0.3753666666666666	6.625066666666667	1
817.6381603688362	0.3871999999999999	6.654533333333334	1
817.6381603688362	0.38803333333333323	6.682933333333333	1
817.6381603688362	0.38803333333333323	6.680266666666666	1
817.6371935319971	0.3879666666666665	6.6788	1
817.6371935319971	0.3835333333333332	6.6788	1
818.623527147952	0.3887999999999999	6.584266666666667	1
818.6242150731205	0.3800333333333332	6.360400000000001	1
818.6242150731205	0.3773999999999999	6.310533333333334	1
818.626661411435	0.3815999999999999	6.2732	1
818.6284698307193	0.3847666666666666	6.2848	1
818.6284698307193	0.39939999999999987	6.326133333333334	1
818.6275080667529	0.39736666666666653	6.531733333333333	1
818.9269469912397	0.38976666666666654	6.427733333333334	1
818.9269469912397	0.38376666666666653	6.504666666666667	1
819.8199737084487	0.38376666666666653	6.6812	1
819.8195764412822	0.3926333333333332	6.7208	1
820.6205539969352	0.3842666666666666	6.7208	1
820.6205539969352	0.3869999999999999	6.696133333333333	1
820.6194379978365	0.38803333333333323	6.696266666666666	1
820.9727858986898	0.3913999999999999	6.634666666666667	1
820.9727858986898	0.3882333333333332	6.6732000000000005	1
820.9727942222531	0.3870999999999999	6.997199999999999	1
821.116216415545	0.3868333333333332	6.980933333333333	1
821.116216415545	0.3825333333333333	6.721866666666666	1
821.3201597125034	0.39463333333333317	6.594933333333334	1
821.8191745560753	0.38946666666666657	6.690266666666666	1
821.8191745560753	0.3921666666666666	6.7804	1
821.8190532558382	0.3921666666666666	6.950799999999999	1
821.8190532558382	0.3922666666666666	7.167333333333333	1
821.8190532558382	0.39356666666666656	7.167333333333333	1
822.2219047228223	0.38856666666666656	7.143066666666667	1
822.2749260341634	0.3924666666666666	7.067733333333334	1
822.2749260341634	0.3926333333333332	6.917199999999999	1
822.4760121179654	0.38296666666666657	6.713466666666666	1
822.7208364293467	0.3877999999999999	6.829733333333333	1
822.7208364293467	0.39003333333333323	7.149733333333332	1
822.72102847171	0.39406666666666657	7.269866666666667	1
823.5278077228213	0.3902999999999999	7.296133333333334	1
823.5278077228213	0.3919666666666666	7.313866666666666	1
823.8817941068862	0.3919666666666666	7.319866666666667	1
824.0293676611642	0.38626666666666654	7.4723999999999995	1
824.3865900534165	0.3875999999999999	7.4723999999999995	1
824.3865900534165	0.3923999999999999	7.358933333333333	1
824.3865870706447	0.3907666666666666	7.2452	1
824.486024010537	0.39253333333333323	7.277866666666667	1
824.486024010537	0.3966333333333332	7.304533333333333	1
824.7889333954067	0.3942999999999999	7.256133333333333	1
824.7898003235335	0.38483333333333325	7.243333333333333	1
824.7898003235335	0.3909666666666666	7.2145333333333355	1
825.1950170256308	0.3865333333333333	7.2456	1
825.6431479500621	0.38653333333333323	7.184266666666666	1
825.6431479500621	0.38653333333333323	7.258399999999998	1
825.7430248808246	0.37723333333333325	7.217466666666666	1
825.7988390424149	0.3885999999999999	7.217466666666666	1
825.7988390424149	0.39956666666666657	7.258533333333333	1
826.1049581275839	0.39366666666666655	7.458399999999998	1
826.1058214966382	0.39126666666666654	7.3088000000000015	1
826.1058214966382	0.40156666666666657	7.290266666666667	1
826.3090426357555	0.38359999999999983	7.24	1
826.9136455057892	0.38546666666666657	7.177866666666666	1
826.9136455057892	0.39116666666666655	7.0292	1
827.0150069126811	0.3941666666666665	6.944533333333332	1
827.0150069126811	0.3921666666666666	6.943999999999999	1
827.826615806676	0.3921666666666666	7.0890666666666675	1
827.826615806676	0.3861999999999999	7.105333333333333	1
827.7805138974431	0.3853666666666665	7.105333333333333	1
828.0312078442296	0.37806666666666655	7.2729333333333335	1
828.0312078442296	0.39306666666666656	7.414	1
828.2333396167912	0.39549999999999985	7.412	1
828.6411199195326	0.38996666666666663	7.324133333333332	1
828.6411199195326	0.3838999999999999	7.265466666666668	1
828.7464268575831	0.3936999999999999	7.183066666666667	1
828.7464243896314	0.38893333333333324	7.379866666666666	1
828.7464243896314	0.3877666666666666	7.464933333333332	1
829.2554137150777	0.3906666666666666	7.5448	1
829.459727673999	0.3906666666666666	7.3572	1
829.459727673999	0.3973999999999999	7.691333333333334	1
829.5593282223666	0.37943333333333323	7.691333333333334	1
829.5594992775415	0.39156666666666656	7.781333333333333	1
829.5594992775415	0.40089999999999987	7.8028	1
829.870108495481	0.3974999999999999	7.815066666666667	1
829.972316385412	0.3818666666666666	7.5024	1
829.972316385412	0.38616666666666655	7.233733333333333	1
830.4783066793774	0.3861333333333333	7.536266666666667	1
830.4810562150594	0.39123333333333327	7.265866666666666	1
830.4810562150594	0.38876666666666654	7.2885333333333335	1
830.8420465123334	0.3906666666666666	7.5636	1
831.1991830130753	0.3854999999999999	7.644133333333333	1
831.196795753555	0.3854999999999999	7.663466666666666	1
831.196795753555	0.38183333333333325	7.627066666666666	1
831.7082154127377	0.38473333333333326	7.627066666666666	1
831.7104915096013	0.3934666666666665	7.6361333333333326	1
831.7104915096013	0.3957666666666666	7.641599999999999	1
831.9151169301194	0.40133333333333326	7.614933333333332	1
832.6362209461424	0.39143333333333324	7.315066666666667	1
832.6362209461424	0.3988333333333332	7.406933333333333	1
832.5339547860036	0.40439999999999987	7.390533333333333	1
832.9481438506905	0.39553333333333324	7.239733333333334	1
832.9481438506905	0.39803333333333324	7.155333333333335	1
833.4078248448362	0.38879999999999987	7.212	1
833.3598451498349	0.38879999999999987	7.279866666666667	1
833.3598451498349	0.4038999999999999	7.1304	1
833.406596600771	0.3942999999999999	7.1304	1
833.8723489286782	0.39656666666666657	7.1116	1
833.8723489286782	0.3902999999999999	7.318133333333334	1
833.9727008377579	0.39836666666666654	7.511199999999999	1
833.975194605053	0.3916999999999999	7.6568	1
833.975194605053	0.3862333333333332	7.4429333333333325	1
834.28184858568	0.3961333333333332	7.2728	1
834.6988644135295	0.3968999999999999	7.226533333333333	1
834.6988644135295	0.3960666666666666	7.217066666666667	1
835.059595430349	0.40886666666666655	7.329200000000001	1
835.3220299327667	0.40886666666666655	7.534266666666666	1
835.3220299327667	0.40586666666666654	7.6872	1
835.4746205490568	0.4109999999999999	7.6872	1
835.4779252012821	0.4163333333333332	7.6786666666666665	1
835.4779252012821	0.4110999999999999	7.614799999999999	1
836.0451929058884	0.4301999999999998	7.400399999999999	1
836.045228504351	0.44056666666666655	7.3886666666666665	1
836.7221530264665	0.45293333333333324	7.4468	1
836.7221530264665	0.4723666666666666	7.417333333333333	1
836.8757849903012	0.4892333333333333	7.443333333333333	1
837.0311344223372	0.49636666666666657	7.474266666666668	1
837.0311344223372	0.4952999999999999	7.4647999999999985	1
837.0299905382416	0.4952999999999999	7.452666666666666	1
837.2958675735307	0.49969999999999987	7.598266666666666	1
837.2958675735307	0.5468666666666666	7.598266666666666	1
837.3428354866987	0.5380999999999998	7.654266666666666	1
837.7094463197453	0.5383333333333332	7.564933333333333	1
837.7594972880711	0.5661999999999999	7.292800000000001	1
837.7594972880711	0.5698666666666666	7.242533333333334	1
838.1802273315906	0.6013333333333333	7.366666666666666	1
838.1804697450913	0.6267333333333333	7.640266666666666	1
838.1804697450913	0.6405666666666665	7.569066666666666	1
838.70077145256	0.6757333333333332	7.4624	1
839.2206640459387	0.6807999999999998	7.387199999999999	1
839.2208786723509	0.6807999999999998	7.352533333333333	1
839.2208786723509	0.7408666666666667	7.337333333333333	1
839.3284305060788	0.7376666666666665	7.337333333333333	1
839.5310286291067	0.7584999999999998	7.4196	1
839.5310286291067	0.7952666666666666	7.355466666666667	1
839.4855234017733	0.7781666666666666	7.344533333333334	1
840.0102774885756	0.7900333333333333	7.395866666666666	1
840.0102774885756	0.9103333333333332	7.495599999999998	1
840.4770320348377	0.9961666666666665	7.6041333333333325	1
840.8993828331185	0.9934333333333333	7.344533333333332	1
840.9009733129043	1.0395333333333332	7.172	1
840.9009733129043	1.0445	7.143466666666667	1
840.9010350790578	1.0445	7.074666666666667	1
840.9488848284909	1.0697666666666665	7.096133333333333	1
840.9488848284909	1.0704666666666665	7.096133333333333	1
841.3622675228444	1.0761666666666665	7.173333333333333	1
841.3213140411224	1.1893333333333331	7.284399999999999	1
841.5280247503676	1.2017666666666666	7.2986666666666675	1
841.5280247503676	1.2078	7.228133333333332	1
841.7426890629148	1.2913333333333332	7.225333333333332	1
841.8445307489068	1.3447999999999998	7.1864	1
841.8445307489068	1.3731999999999998	7.201066666666666	1
842.1607643330145	1.4694333333333334	6.96	1
842.3694738552217	1.4697999999999998	6.940533333333333	1
842.3694738552217	1.4697999999999998	7.012	1
842.7909121411053	1.6134666666666666	6.933599999999999	1
843.1074235546353	1.7421	6.933599999999999	1
843.1086968282862	1.900333333333333	7.1584	1
843.1086968282862	1.9635666666666665	7.239866666666667	1
843.4309154291685	2.1882666666666664	7.486399999999999	0.40000000000000013
843.4309154291685	1.466033333333333	7.428266666666665	1
843.5333040087371	1.2695666666666665	7.330799999999999	1
844.3764467554122	1.9501	5.619066666666667	1
844.3764467554122	1.8274333333333335	4.084266666666666	1
844.6947997063476	1.8274333333333335	3.3855999999999997	1
844.8035059519154	1.6885000000000001	3.228666666666667	1
844.9051257922262	1.6554333333333333	3.228666666666667	1
844.9051257922262	1.5798333333333332	2.8741333333333334	1
844.9074779377754	1.5189	2.627733333333333	1
843.1086710912522	1.9809333333333332	7.345866666666666	0.9
842.7900838310475	1.9809333333333332	7.1694666666666675	1
842.7898234127174	1.4698333333333333	7.035733333333334	1
842.7898234127174	1.3417666666666666	7.035733333333334	1
842.1620516785018	1.5636666666666665	6.939866666666667	1
842.1604731225823	1.4512333333333332	6.829066666666668	1
842.1604731225823	1.418	6.8196	1
841.8931893224119	1.3755	7.037733333333333	1
841.8931893224119	1.290733333333333	6.920933333333332	1
841.5283642264124	1.2940333333333334	7.268533333333333	1
841.5283642264124	1.2698666666666665	7.363066666666666	1
841.3198352593599	1.186	7.199066666666668	1
841.3171753727352	1.1978666666666664	7.249066666666666	1
841.3171753727352	1.1978666666666664	7.355599999999998	1
840.9007590223279	1.1520666666666666	7.319333333333334	1
840.9008971062613	1.0768	7.319333333333334	1
840.9009907226055	1.062733333333333	7.320133333333334	1
840.9009907226055	1.0864666666666665	7.3172	1
840.9006245164411	1.0742	7.254533333333332	1
840.480375403489	1.0444333333333333	7.2328	1
840.480375403489	0.9613666666666666	7.2732	1
840.1360153413077	0.9089666666666665	7.328933333333333	1
839.5354423215347	0.7910333333333333	7.320666666666666	1
839.5354423215347	0.7875333333333333	7.391866666666666	1
839.5354306946342	0.7869999999999999	7.537599999999999	1
839.2215632610302	0.7869999999999999	7.661866666666665	1
839.2217490298649	0.7857999999999998	7.591599999999999	1
839.2217490298649	0.7523	7.591599999999999	1
838.5979999482386	0.7551666666666665	7.429466666666667	1
838.2323958873324	0.7091999999999999	7.318133333333334	1
838.2323958873324	0.6475666666666666	7.1341333333333345	1
838.1808635841234	0.6308999999999999	7.2362666666666655	1
838.0726317168449	0.6333	7.345466666666666	1
837.7584472868054	0.5868999999999999	7.378133333333332	1
837.7584472868054	0.5758333333333332	7.476933333333333	1
837.3440074417291	0.5565999999999999	7.620799999999999	1
837.3441866221234	0.5399666666666666	7.8082666666666665	1
837.3441866221234	0.5399666666666666	7.805733333333334	1
837.2946459660014	0.5303333333333332	7.695600000000001	1
837.0322814783964	0.5304666666666666	7.695600000000001	1
837.0322814783964	0.5222666666666665	7.612666666666668	1
837.0303638481231	0.5064333333333333	7.517866666666666	1
836.7713377090539	0.49366666666666653	7.362933333333332	1
836.5113286738659	0.48063333333333325	7.355866666666666	1
836.5113286738659	0.4815666666666666	7.391333333333332	1
836.0934878191728	0.44866666666666655	7.449333333333333	1
836.0452985295268	0.4449999999999998	7.355599999999999	1
836.0452985295268	0.43599999999999983	7.388933333333333	1
835.8680942803014	0.4343333333333332	7.449866666666667	1
835.4751187741458	0.4343333333333332	7.546666666666667	1
835.4751187741458	0.4167333333333333	7.522533333333333	1
835.5618708129489	0.41136666666666655	7.522533333333333	1
835.0604283185874	0.40413333333333323	7.317999999999999	1
834.5981058552526	0.4144333333333332	7.287466666666666	1
834.5981058552526	0.39779999999999993	7.2918666666666665	1
834.2872744806139	0.39553333333333324	7.264666666666665	1
834.2871823007973	0.40053333333333324	7.2795999999999985	1
834.2871823007973	0.4016333333333333	7.345733333333333	1
833.975156031639	0.39863333333333323	7.392799999999999	1
833.7160239103446	0.4021666666666666	7.309466666666667	1
833.7160239103446	0.38793333333333324	7.27	1
833.3601023655178	0.38793333333333324	7.3137333333333325	1
833.358941162366	0.39383333333333326	7.419200000000001	1
832.9974070456406	0.38566666666666655	7.419200000000001	1
832.9974070456406	0.4024333333333332	7.435733333333332	1
832.9974078389641	0.39109999999999995	7.502133333333333	1
832.5339729465977	0.39566666666666656	7.5068	1
832.5339729465977	0.3843999999999999	7.4732	1
832.5348329028747	0.39566666666666656	7.436399999999999	1
832.122847538951	0.38626666666666654	7.148933333333335	1
831.7121995683569	0.39393333333333325	7.177999999999999	1
831.7121995683569	0.3885999999999999	7.544933333333332	1
831.70944819892	0.38819999999999993	7.693866666666666	1
831.71159643753	0.38819999999999993	7.740400000000001	1
831.71159643753	0.3861999999999999	7.781333333333333	1
831.2017610223562	0.3966333333333332	7.781333333333333	1
830.891316225241	0.3977333333333332	7.516266666666667	1
830.891316225241	0.39876666666666655	7.7876	1
830.4810884286425	0.3897666666666666	7.310666666666666	1
830.4833216583768	0.3858999999999999	7.245333333333333	1
830.0692323178569	0.3816999999999999	7.239466666666667	1
830.0692323178569	0.39319999999999994	7.415600000000001	1
829.9687346910843	0.38896666666666657	7.478533333333333	1
829.8699597614017	0.39149999999999985	7.595333333333333	1
829.8699597614017	0.39529999999999993	7.671866666666666	1
829.5603053134894	0.39529999999999993	7.700400000000001	1
829.4608946579903	0.3910999999999999	7.332133333333333	1
829.4608946579903	0.38859999999999995	7.332133333333333	1
829.4608946579903	0.3982333333333332	7.318933333333333	1
829.2564582243868	0.39316666666666655	7.427733333333332	1
828.6452287249317	0.38933333333333325	7.4954666666666645	1
828.6452287249317	0.39319999999999994	7.415333333333333	1
828.6433998457252	0.3920333333333332	7.416266666666667	1
828.6452433746309	0.3902333333333332	7.408266666666665	1
828.6452433746309	0.4007333333333332	7.4304	1
828.1342801400264	0.40143333333333325	7.351333333333332	1
828.0305366491733	0.39606666666666657	7.213733333333333	1
827.8313421605045	0.39606666666666657	7.1290666666666676	1
827.8313421605045	0.40526666666666655	7.080666666666666	1
827.3184339074096	0.39379999999999993	7.080666666666666	1
827.0161597188508	0.3881999999999998	7.225466666666666	1
827.0161597188508	0.3909666666666665	7.221333333333332	1
826.9160646166027	0.39203333333333323	7.2608	1
826.9117356864699	0.3923666666666666	7.404399999999999	1
826.103863814721	0.3886333333333333	7.385599999999999	1
826.103863814721	0.39406666666666657	7.289866666666667	1
826.1019399252431	0.3954666666666665	7.181466666666665	1
826.1030103675276	0.3861333333333333	7.068933333333333	1
826.1030103675276	0.3920999999999999	7.1478666666666655	1
825.7968713143142	0.39053333333333323	7.148799999999998	1
825.6983724387177	0.39053333333333323	7.233999999999999	1
825.6424784148536	0.3914666666666666	7.2707999999999995	1
825.6424784148536	0.39649999999999985	7.2707999999999995	1
825.3383262081787	0.3870333333333332	7.322399999999999	1
824.7888509253876	0.39093333333333324	7.433066666666665	1
824.7888509253876	0.38853333333333323	7.28	1
824.7899333388402	0.3923666666666666	7.2850666666666655	1
824.4860805297798	0.3825333333333332	7.249066666666666	1
824.3868865633948	0.3890999999999999	7.256266666666667	1
824.3868865633948	0.3871333333333332	7.266533333333333	1
824.0292124797289	0.3871333333333332	7.328133333333332	1
823.8803219513362	0.38446666666666657	7.379733333333333	1
823.8803219513362	0.38446666666666657	7.337333333333333	1
823.7287459026126	0.3898999999999999	7.254533333333332	1
823.4801605631601	0.3801333333333332	7.254533333333332	1
823.4801605631601	0.3904999999999999	6.9552	1
822.721012720391	0.39586666666666653	7.191733333333332	1
822.7210050607987	0.3873666666666666	7.216133333333333	1
822.2745012061641	0.3852333333333332	7.134133333333333	1
822.2745012061641	0.39456666666666657	7.2836	1
822.2209365054068	0.3929999999999999	7.240533333333333	1
822.2218220839164	0.38943333333333324	7.118266666666667	1
822.2218220839164	0.3911333333333333	7.027066666666666	1
821.8201128046676	0.3856333333333332	6.870666666666666	1
821.8200805811825	0.3856333333333332	6.814133333333334	1
821.1186375047128	0.38519999999999993	6.7387999999999995	1
821.1186375047128	0.38899999999999985	6.7387999999999995	1
821.1186083065043	0.3790999999999999	6.708666666666666	1
820.9727755678651	0.38859999999999995	6.691199999999999	1
820.9727755678651	0.38689999999999986	6.778266666666667	1
820.575080120143	0.3856999999999999	6.718133333333333	1
820.6205320750017	0.3922333333333332	6.752800000000001	1
819.8205054283984	0.3908999999999999	6.722799999999999	1
819.8205054283984	0.3871333333333332	6.6784	1
819.8202967920433	0.39506666666666657	6.6596	1
818.5628128312516	0.38553333333333323	6.543466666666667	1
818.5628128312516	0.38553333333333323	6.296	1
818.9258373846301	0.3872666666666666	6.5032000000000005	1
818.6285639525213	0.3873333333333332	6.5032000000000005	1
818.6285639525213	0.38293333333333324	6.425200000000001	1
818.6256658843683	0.38243333333333324	6.395333333333334	1
818.6276268919472	0.38143333333333324	6.386266666666667	1
818.3236303336314	0.3946666666666666	6.5588	1
818.3236303336314	0.3938666666666666	6.484	1
817.7327568004465	0.39226666666666654	6.399733333333335	1
817.5890678336282	0.39343333333333325	6.566133333333334	1
817.5890678336282	0.37656666666666655	6.476000000000001	1
817.3352644211817	0.39103333333333323	6.519466666666666	1
816.8431631621019	0.39103333333333323	6.601066666666667	1
816.8428194877848	0.38849999999999985	6.6716	1
816.8428194877848	0.38393333333333324	6.6716	1
816.5451421501458	0.38633333333333325	6.590400000000001	1
816.145765054613	0.39649999999999985	6.4118666666666675	1
816.145765054613	0.3822666666666666	6.281333333333333	1
815.4120823343931	0.3776333333333332	6.407733333333335	1
815.4110006365792	0.3802666666666666	6.458799999999999	1
815.4110006365792	0.3906333333333332	6.4852	1
815.2582867822207	0.3813999999999999	6.558933333333334	1
815.1166560472245	0.3867666666666666	6.655466666666666	1
814.7682595262254	0.3920999999999999	6.7056	1
814.7682595262254	0.3920999999999999	6.609066666666667	1
814.7699347760598	0.3989333333333332	6.599333333333334	1
814.7709099708293	0.3974999999999999	6.599333333333334	1
814.7709099708293	0.39303333333333323	6.593200000000001	1
814.2318511046564	0.3869333333333332	6.4850666666666665	1
814.0321443792303	0.3846333333333332	5.930933333333332	1
813.9834330096755	0.39059999999999995	6.166266666666667	1
813.9834330096755	0.3935999999999999	6.277066666666666	1
813.5346165840494	0.38453333333333317	6.251333333333334	1
813.1014898715947	0.3843999999999999	6.2964	1
813.1014898715947	0.39116666666666655	6.3872	1
813.0559448162153	0.38683333333333325	6.3476	1
813.0519474605827	0.38683333333333325	6.354399999999999	1
813.0519474605827	0.39006666666666656	6.424266666666667	1
813.0520696973234	0.38606666666666656	6.424266666666667	1
811.8798911498103	0.3877999999999999	6.1756	1
811.8798911498103	0.3946666666666666	6.142000000000001	1
811.8809220259365	0.3805333333333332	6.268666666666666	1
811.8809635372842	0.38903333333333323	6.383333333333335	1
811.7841012142229	0.38849999999999985	6.464666666666667	1
811.7841012142229	0.38396666666666657	6.471866666666666	1
811.5295217400745	0.38056666666666655	6.262266666666666	1
811.3409550896488	0.39083333333333325	6.461733333333333	1
811.3409550896488	0.3899666666666666	6.846133333333333	1
811.3413606568748	0.3899666666666666	6.864933333333333	1
811.1392958749923	0.40176666666666655	6.8552	1
810.6561927637024	0.3808666666666665	6.8552	1
810.6561927637024	0.3853666666666666	6.2257333333333325	1
810.6560814045753	0.3888666666666666	6.704	1
810.2619966434546	0.3891999999999999	6.729066666666667	1
810.2619966434546	0.3823999999999999	6.445200000000001	1
809.7801918562542	0.3944999999999999	6.362133333333333	1
809.7828252273916	0.38973333333333327	6.5404	1
809.7828252273916	0.38986666666666653	6.524133333333333	1
809.4871503472697	0.3909666666666665	6.530933333333334	1
809.4871503472697	0.39156666666666656	6.4912	1
808.4224624671591	0.3908999999999999	6.5848	1
808.4224624671591	0.3908999999999999	6.3525333333333345	1
808.4230624839664	0.3893666666666666	6.3525333333333345	1
808.2286734393685	0.4021999999999999	6.404666666666667	1
808.2286734393685	0.39169999999999994	6.790533333333333	1
808.1318653961931	0.3901333333333332	6.523466666666667	1
808.1317446982348	0.38919999999999993	6.213866666666667	1
807.7436125804976	0.38323333333333326	6.272399999999999	1
807.7436125804976	0.3931666666666666	6.787466666666667	1
807.7436205559002	0.3865999999999999	6.8828000000000005	1
807.35840219032	0.3849333333333332	6.883466666666666	1
807.35840219032	0.38646666666666657	6.3072	1
807.3576439178544	0.38766666666666655	6.614533333333334	1
806.9712544860089	0.38766666666666655	6.958266666666665	1
806.4890653815075	0.3898666666666666	6.958266666666665	1
806.4890653815075	0.3904999999999999	6.8432	1
806.242402264203	0.3912333333333332	6.792533333333332	1
806.0088814282296	0.3907333333333332	6.612133333333333	1
806.0088814282296	0.3901333333333333	6.676666666666667	1
806.0103648769492	0.38073333333333326	6.749866666666667	1
804.9484848233831	0.3905333333333333	6.6341333333333345	1
804.8557671814663	0.3896666666666666	6.6616	1
804.8557671814663	0.3998999999999999	6.646933333333333	1
804.8557701716218	0.3899333333333332	6.677066666666667	1
804.8531327991745	0.3888666666666665	6.680933333333333	1
804.8531327991745	0.3888666666666665	6.6032	1
804.8531327991745	0.3912999999999999	6.6032	1
804.4697169092418	0.3850333333333332	6.561066666666667	1
804.3318104990846	0.3889333333333332	6.597333333333334	1
804.3318104990846	0.3925999999999999	6.592	1
803.9920327404847	0.3746333333333332	6.398533333333334	1
803.9935383537045	0.3786999999999999	5.786666666666667	1
803.9935383537045	0.3872999999999999	5.6552	1
803.6092810213343	0.38496666666666657	5.3373333333333335	1
803.130475810137	0.3852666666666666	3.6784	1
802.8449293014719	0.3919666666666666	3.664266666666667	1
802.8449293014719	0.39319999999999994	2.661866666666666	1
802.8456728267896	0.39319999999999994	2.5648	1
802.8456728267896	0.3844999999999999	1.6326666666666663	1
802.8456728267896	0.3914999999999999	1.6326666666666663	1
801.6043786637009	0.3923999999999999	1.5286666666666664	1
801.6044048287653	0.38483333333333325	0.3627999999999999	1
801.4156255186372	0.39189999999999986	0.36026666666666657	1
801.4156255186372	0.37396666666666656	0.3258666666666665	1
801.4134552189021	0.3928333333333332	0.2779999999999998	1
801.2234461138738	0.3781333333333332	0.23560000000000003	1
801.2234461138738	0.39103333333333323	0.20000000000000018	1
801.1269590199884	0.3925666666666665	0.1982666666666668	1
801.1289716528657	0.3907999999999999	0.1988000000000002	1
801.1289630552066	0.3907999999999999	0.1817333333333335	1
801.1289630552066	0.3907333333333332	0.1817333333333335	1
800.8435297219395	0.3869333333333333	0.1108000000000001	1
800.3709037714827	0.38316666666666654	0.09426666666666675	1
800.3709037714827	0.38696666666666657	0.040000000000000036	1
800.3689177984791	0.3799999999999999	0.040000000000000036	1
800.3679451751533	0.4023999999999999	0.040000000000000036	1
