wavelength(nm)	flourescence PMT(V)	ti_saph Power (V)	Gain (V)
800.3693428830526	0.38986666666666653	0.038533333333333364	1
800.3693428830526	0.39139999999999986	0.040000000000000036	1
800.3693206959749	0.3965999999999999	0.040000000000000036	1
800.3693206959749	0.3822999999999999	0.04013333333333337	1
800.751395279956	0.38096666666666656	0.040000000000000036	1
800.8447449710019	0.3765333333333333	0.0689333333333334	1
800.8447449710019	0.39016666666666655	0.1605333333333335	1
801.2257202239546	0.39156666666666656	0.1985333333333335	1
801.2256579402799	0.3860999999999999	0.2001333333333335	1
801.2256579402799	0.3973333333333332	0.19986666666666683	1
801.2257206497394	0.3973333333333332	0.20173333333333351	1
801.4159315036585	0.3818666666666666	0.20173333333333351	1
801.4159315036585	0.38346666666666657	0.25933333333333325	1
801.6058478033914	0.38666666666666655	0.32479999999999987	1
801.6058478033914	0.37793333333333323	0.3575999999999999	1
801.6984141763631	0.3906666666666666	0.3609333333333332	1
801.6984141763631	0.3852666666666666	0.9330666666666665	1
801.6984141763631	0.3830333333333332	1.3778666666666664	1
802.7511017194993	0.39056666666666656	2.1487999999999996	1
802.8439716934287	0.3839999999999999	2.3002666666666665	1
802.8439716934287	0.3921999999999999	2.4857333333333336	1
803.1325734201358	0.3969666666666666	3.711466666666667	1
803.6102643258076	0.3969666666666666	4.6386666666666665	1
803.6102643258076	0.37969999999999987	5.082933333333334	1
803.6089394451874	0.38366666666666654	5.082933333333334	1
803.6089394451874	0.3960999999999999	5.4872	1
803.6089394451874	0.39399999999999985	5.9204	1
804.3761962318993	0.39776666666666655	5.894133333333333	1
804.3761962318993	0.38576666666666654	6.4016	1
804.5123559645936	0.3944666666666666	6.4916	1
804.4720605585824	0.39483333333333326	6.489333333333334	1
804.4720605585824	0.3896333333333332	6.422533333333334	1
804.760131736122	0.39253333333333323	6.3652000000000015	1
804.8555144656721	0.3977333333333332	6.402666666666668	1
804.8555144656721	0.3977333333333332	6.406533333333334	1
804.854233470543	0.3888999999999999	6.404400000000001	1
805.239716858708	0.3996333333333332	6.404400000000001	1
805.239716858708	0.3915999999999999	6.441200000000001	1
806.0124981071322	0.39236666666666653	6.543866666666666	1
806.0124442927611	0.3777333333333332	6.8284	1
806.0124442927611	0.39553333333333324	6.788133333333333	1
806.3964748358126	0.39156666666666656	6.725866666666666	1
806.3964748358126	0.3915999999999999	6.390666666666666	1
806.8766562061143	0.3906999999999999	6.306533333333333	1
806.8766807511201	0.38673333333333315	6.113066666666667	1
806.8766807511201	0.38846666666666657	6.239599999999999	1
807.2639538577577	0.38846666666666657	6.9388	1
807.399589484022	0.3801333333333332	6.6419999999999995	1
807.399589484022	0.39156666666666656	6.6419999999999995	1
807.3589974501666	0.3886333333333333	6.301733333333333	1
807.3589974501666	0.3820666666666666	6.266266666666667	1
807.3589974501666	0.38916666666666655	6.311066666666667	1
808.0388642935621	0.38616666666666655	6.723599999999999	1
808.0388642935621	0.39236666666666653	6.508266666666667	1
808.1332424900621	0.3935999999999999	6.3592	1
808.133222842711	0.39983333333333326	6.3032	1
808.133222842711	0.38346666666666657	6.277733333333332	1
808.1322829696924	0.3905999999999999	6.353466666666667	1
808.4240198590943	0.3905999999999999	6.448133333333334	1
808.4240198590943	0.38906666666666656	6.229733333333334	1
808.5216595329949	0.38909999999999995	6.229733333333334	1
809.393505390258	0.3852333333333332	6.633066666666667	1
809.393505390258	0.38753333333333323	6.590800000000001	1
809.3920272946393	0.3941333333333332	6.517733333333334	1
809.6887828312442	0.38809999999999995	6.446266666666667	1
809.6887828312442	0.3895999999999999	6.351466666666668	1
810.2659346674834	0.38846666666666657	6.316266666666667	1
810.2659346674834	0.39616666666666656	6.167200000000001	1
810.6572865242603	0.38683333333333325	6.305466666666666	1
810.657483462665	0.38603333333333323	6.685333333333333	1
810.657483462665	0.38623333333333326	6.648266666666666	1
810.7536236190988	0.38623333333333326	6.305066666666667	1
811.0492871382053	0.3942666666666666	6.250133333333333	1
811.0492871382053	0.3892333333333332	6.250133333333333	1
811.2961891151875	0.3865999999999999	6.389066666666666	1
811.5727703109222	0.3904666666666665	6.482133333333333	1
811.5727703109222	0.38306666666666656	6.397733333333334	1
811.5353985089507	0.3843999999999999	6.1244000000000005	1
811.5353985089507	0.3931333333333332	6.046133333333334	1
811.8287114796626	0.3858999999999999	6.266666666666667	1
811.8287897553956	0.38546666666666657	6.223066666666666	1
811.8287897553956	0.3835333333333332	6.2102666666666675	1
811.9258524387949	0.3934666666666665	6.226	1
812.7078762203355	0.3934666666666665	6.3508000000000004	1
812.7078762203355	0.39203333333333323	6.394666666666668	1
812.7078748970791	0.39593333333333325	6.394666666666668	1
812.7078748970791	0.38916666666666655	6.407466666666667	1
813.0981215336452	0.3977666666666666	6.124933333333334	1
813.103404171828	0.38929999999999987	6.043866666666667	1
813.103404171828	0.3840333333333332	6.104133333333333	1
813.4941298115467	0.3886333333333333	6.0069333333333335	1
813.4941298115467	0.37686666666666657	6.1096	1
813.4941298115467	0.38366666666666654	6.308933333333333	1
813.983734434077	0.3931999999999999	6.3992	1
813.9827717479355	0.3877999999999999	6.417200000000001	1
813.9827717479355	0.3877999999999999	6.265200000000001	1
814.7707934376712	0.39379999999999993	6.397333333333333	1
814.7699559429008	0.3918666666666666	6.397333333333333	1
814.7699559429008	0.38193333333333324	6.649333333333334	1
814.7707840524308	0.3929666666666666	6.638933333333333	1
814.7706859889394	0.3937999999999999	6.612800000000001	1
814.7706859889394	0.39066666666666655	6.6000000000000005	1
815.1181048207716	0.3875999999999999	6.598666666666668	1
815.1181048207716	0.3799999999999999	6.5680000000000005	1
815.2609879758272	0.3813666666666666	6.5244	1
815.261015806731	0.39333333333333326	6.466933333333333	1
815.261015806731	0.38746666666666657	6.401733333333334	1
815.26092073971	0.38746666666666657	6.3812000000000015	1
816.2503011735193	0.37346666666666656	6.276533333333333	1
816.2503011735193	0.38683333333333325	6.276533333333333	1
816.250350273465	0.3871666666666666	6.158533333333333	1
816.8418021839401	0.3949333333333332	6.273600000000001	1
816.8418021839401	0.39303333333333323	6.529866666666667	1
817.3357419257369	0.38703333333333323	6.519733333333333	1
817.6345608473448	0.3881666666666666	6.3866666666666685	1
817.6345608473448	0.3826999999999999	6.436000000000001	1
817.6346726057795	0.3965999999999999	6.463466666666666	1
817.6346726057795	0.3846666666666666	6.428666666666667	1
817.7330261019403	0.3928999999999999	6.3096000000000005	1
818.6045856051921	0.3928999999999999	6.250666666666667	1
818.6045856051921	0.3781333333333332	6.116933333333333	1
818.6266463276709	0.3903333333333332	6.116933333333333	1
818.6268172928246	0.3891333333333332	6.051333333333334	1
818.6268172928246	0.39019999999999994	6.120933333333334	1
818.5397529533399	0.39079999999999987	6.220133333333333	1
818.9280721068019	0.38519999999999993	6.537066666666666	1
818.9280721068019	0.3883666666666665	6.355333333333334	1
819.8229200105226	0.3853333333333332	6.559866666666667	1
819.8237427461421	0.3890999999999999	6.556666666666667	1
819.8237427461421	0.3939333333333332	6.500533333333333	1
820.6227928817868	0.38933333333333325	6.530533333333333	1
820.6227928817868	0.38933333333333325	6.599466666666667	1
820.6238701505583	0.39019999999999994	6.695333333333333	1
821.0243189856814	0.3848999999999999	6.695333333333333	1
821.0243189856814	0.3874666666666666	6.7666666666666675	1
821.1211323971851	0.39583333333333326	6.830133333333333	1
821.1210339567335	0.3873666666666665	6.919333333333334	1
821.1210339567335	0.3818999999999999	6.9101333333333335	1
821.7745103876504	0.3847666666666666	7.007066666666666	1
821.775527861543	0.4004999999999999	7.071466666666665	1
821.775527861543	0.38033333333333325	6.989199999999999	1
822.175942382769	0.3994999999999999	6.974133333333333	1
822.175942382769	0.39519999999999994	7.066533333333333	1
822.2232690729434	0.39519999999999994	7.0984	1
822.2232824777441	0.3853999999999999	7.103066666666667	1
822.2232824777441	0.38626666666666654	7.103066666666667	1
822.7243979413012	0.3973666666666666	7.010800000000001	1
822.7244019513892	0.38196666666666657	7.2177333333333324	1
822.7244019513892	0.39189999999999986	7.238400000000001	1
823.5301313106721	0.3974666666666665	7.210533333333333	1
823.531087269771	0.39383333333333326	7.293333333333333	1
823.531087269771	0.39366666666666655	7.315333333333333	1
823.8832128631703	0.39293333333333325	7.238133333333332	1
824.0319471774113	0.3941999999999999	7.239333333333333	1
824.0319471774113	0.38933333333333325	7.2736	1
824.4341471618546	0.38933333333333325	6.942666666666668	1
824.4341471618546	0.39279999999999987	6.826933333333333	1
824.4355464566814	0.3898999999999999	6.826933333333333	1
824.4346139267846	0.38829999999999987	6.730533333333333	1
824.4346139267846	0.3941999999999999	6.7842666666666664	1
824.7934053747908	0.3820333333333332	6.999066666666666	1
825.2927616789885	0.3966333333333332	6.9712000000000005	1
825.2927616789885	0.3847333333333332	7.076933333333333	1
825.6035454875838	0.3830999999999999	7.183999999999999	1
825.7449047378733	0.4048999999999999	7.182000000000001	1
825.7449047378733	0.3915333333333333	7.069866666666667	1
825.701444926569	0.3883666666666665	7.038666666666666	1
825.701444926569	0.3883666666666665	7.229733333333334	1
826.104561042262	0.38263333333333327	7.163466666666666	1
826.104447109457	0.39366666666666655	7.163466666666666	1
826.104447109457	0.3849333333333332	7.194933333333333	1
826.4570838091768	0.4019999999999999	7.275066666666667	1
826.8165033960366	0.3914999999999999	7.427866666666666	1
826.8165033960366	0.38846666666666657	7.454133333333332	1
826.9149397450942	0.3940333333333333	7.374799999999999	1
826.9149397450942	0.3979666666666666	7.3285333333333345	1
826.9149397450942	0.3818999999999999	7.321599999999998	1
827.8311352938124	0.38306666666666656	7.273466666666667	1
828.0342269060701	0.3997999999999999	7.226666666666667	1
828.0342269060701	0.39406666666666657	7.2496	1
828.0345219033691	0.39406666666666657	7.249866666666665	1
828.0345219033691	0.4073333333333332	7.341199999999999	1
828.3397440396917	0.39183333333333326	7.341199999999999	1
828.6440476572794	0.3957999999999999	7.2688	1
828.6440476572794	0.39126666666666654	7.250533333333333	1
828.6471069517055	0.39879999999999993	7.244133333333332	1
829.2577300500034	0.38346666666666657	7.2409333333333326	1
829.2577300500034	0.4022999999999999	7.3394666666666675	1
829.4574990936694	0.39213333333333317	7.280533333333333	1
829.4574899569959	0.39319999999999994	7.266266666666667	1
829.4574899569959	0.3873666666666666	7.403066666666667	1
829.5617023991567	0.39886666666666654	7.786266666666667	1
829.8696894582505	0.39886666666666654	7.848	1
829.8696894582505	0.3841999999999999	7.8225333333333325	1
829.9698008239944	0.38976666666666654	7.8225333333333325	1
829.9698008239944	0.38669999999999993	7.495866666666667	1
829.9701000273443	0.3798999999999999	7.1694666666666675	1
830.4808191312742	0.3858666666666665	7.3806666666666665	1
830.4808191312742	0.39026666666666654	7.183599999999999	1
830.5829321317715	0.38523333333333326	7.1997333333333335	1
830.8913799747364	0.3839999999999999	7.309733333333334	1
830.8913799747364	0.38946666666666657	7.504133333333333	1
831.1477199091383	0.38593333333333324	7.6884	1
831.7108863584438	0.3933666666666666	7.6864	1
831.7108863584438	0.3933666666666666	7.556666666666667	1
831.7138469310032	0.3958999999999999	7.464533333333332	1
831.9185501051759	0.39316666666666655	7.464533333333332	1
831.9185501051759	0.39786666666666654	7.2632	1
832.1253345899387	0.3900999999999999	7.058533333333335	1
832.1253345899387	0.3942666666666666	7.132266666666667	1
832.2547590972259	0.39986666666666654	7.295199999999999	1
832.9955181583568	0.3969999999999999	7.373866666666666	1
832.9955181583568	0.3845666666666666	7.456266666666665	1
833.3068466864434	0.3958999999999999	7.4716000000000005	1
833.3068649826599	0.4027333333333332	7.440666666666664	1
833.3068649826599	0.3942333333333332	7.368533333333333	1
833.7176063264772	0.39749999999999985	7.218933333333333	1
833.8734420767582	0.39749999999999985	7.357466666666666	1
833.8734420767582	0.4087999999999999	7.357466666666666	1
834.1854472348624	0.38689999999999986	7.395999999999999	1
834.2332855558323	0.3913666666666666	7.371466666666666	1
834.2332855558323	0.39076666666666654	7.401866666666667	1
834.6486912872409	0.4035666666666666	7.4429333333333325	1
834.6486912872409	0.3991333333333333	7.398266666666666	1
835.2675187127285	0.41376666666666656	7.334666666666665	1
835.2675801972889	0.4155999999999999	7.358266666666665	1
835.2675801972889	0.40343333333333325	7.338266666666665	1
835.7194537886413	0.4299333333333332	7.358133333333332	1
835.7847537179299	0.42789999999999984	7.481333333333332	1
835.7847537179299	0.42789999999999984	7.444799999999999	1
836.0486319486231	0.43349999999999983	7.381999999999998	1
836.516509080908	0.4452333333333332	7.381999999999998	1
836.516509080908	0.4549666666666665	7.433599999999999	1
836.7742784053611	0.4801666666666665	7.418399999999998	1
837.0330187341215	0.4753666666666666	7.338933333333332	1
837.0330187341215	0.49653333333333327	7.3822666666666645	1
837.0329166133816	0.5133666666666665	7.372400000000001	1
837.0329166133816	0.5074999999999998	7.145199999999998	1
837.239221095271	0.5180333333333332	7.0552	1
837.5015157323987	0.5394999999999999	7.309466666666667	1
837.5015157323987	0.5585666666666665	7.597599999999999	1
837.8155347479683	0.5585666666666665	7.690799999999999	1
838.1780249361378	0.5813666666666666	7.662	1
838.1780249361378	0.5975666666666666	7.662	1
838.1792454567158	0.6326333333333332	7.560666666666666	1
838.4947745070804	0.6177666666666666	7.54	1
838.4947745070804	0.6420999999999999	7.396000000000001	1
838.9103006431297	0.6855999999999999	7.171200000000001	1
838.9103006431297	0.7152	7.2608	1
839.0680557465809	0.734	7.392933333333334	1
839.2240034786256	0.7665333333333333	7.527466666666666	1
839.2240034786256	0.7594333333333333	7.564533333333332	1
839.430904693885	0.7644999999999998	7.538800000000001	1
839.5387440549027	0.7644999999999998	7.5746666666666655	1
839.5387440549027	0.7954333333333332	7.565066666666665	1
839.8506673250084	0.7980333333333333	7.565066666666665	1
840.3735713043192	0.8710333333333331	7.4708	1
840.3735713043192	0.9421666666666666	7.413199999999999	1
840.6877358665804	1.0261	7.558266666666666	1
840.904074274859	1.0392666666666666	7.5632	1
840.904074274859	1.0717999999999999	7.318533333333333	1
840.9537038409786	1.0872	7.243733333333333	1
840.9537038409786	1.0859333333333332	7.220666666666666	1
841.2648850111008	1.1114	7.2032	1
841.2673272969791	1.1812666666666667	7.200399999999999	1
841.2673272969791	1.1812666666666667	7.197066666666666	1
841.5314897935613	1.1887333333333332	7.2223999999999995	1
841.531434927694	1.265	7.2223999999999995	1
841.531434927694	1.291	7.321199999999999	1
841.7418052244749	1.3193999999999997	7.143866666666666	1
842.1584515957221	1.3747999999999998	7.1808	1
842.1584515957221	1.4693333333333332	7.03	1
844.4573110074246	1.5602333333333331	7.111333333333332	1
844.4573110074246	1.661633333333333	7.1032	1
841.2401561588266	1.7250666666666665	7.124399999999999	1
843.0031659743847	1.8835999999999997	7.120533333333334	1
843.0031659743847	1.9516333333333329	7.157733333333332	1
843.4285615692394	1.9516333333333329	7.2816	1
843.4287292298922	2.12	7.377199999999999	0.40000000000000013
843.4286161301309	1.6821333333333333	7.492133333333333	1
844.3791128763123	1.1099999999999999	7.253466666666666	1
844.3791128763123	1.7842	5.408933333333333	1
844.7005532809311	1.7471333333333332	3.8343999999999996	0.5000000000000001
844.8042979203558	0.9578333333333332	3.1797333333333335	1
844.804295163003	0.9578333333333332	2.8182666666666667	1
844.804295163003	1.0345666666666666	2.8182666666666667	1
844.908439376458	1.4089999999999998	2.6609333333333334	1
842.372893041111	1.6915999999999998	7.162533333333334	1
842.372893041111	1.6915999999999998	7.209733333333333	1
842.3729992613773	1.6062999999999998	7.154133333333332	1
842.0571129304076	1.5766666666666667	7.154133333333332	1
842.0571129304076	1.4386999999999999	7.1012	1
841.636889274535	1.3688333333333333	7.089333333333334	1
841.6367352895238	1.2471333333333332	6.792666666666666	1
841.6367352895238	1.2069	6.7456000000000005	1
841.318525133931	1.1858666666666664	6.963333333333333	1
841.318525133931	1.1650333333333331	7.009466666666667	1
841.0036712838482	1.1513333333333333	7.324399999999999	1
841.0035631916091	1.1159999999999999	7.557733333333332	1
841.0035631916091	1.1173999999999997	7.529466666666667	1
840.687576847178	1.1173999999999997	7.557733333333332	1
840.6890226107677	1.0796666666666666	7.559599999999999	1
840.6890226107677	1.048733333333333	7.559599999999999	1
840.3735670960054	1.0242333333333333	7.418266666666667	1
839.7479060750953	0.9590333333333333	7.320133333333334	1
839.7479060750953	0.8699666666666666	7.265333333333332	1
839.433529222764	0.8110666666666666	7.5360000000000005	1
839.433529222764	0.8049666666666666	7.650399999999999	1
839.2747586630984	0.7747333333333333	7.579066666666666	1
839.1215783614282	0.7579333333333333	7.548399999999998	1
839.1215783614282	0.7409333333333332	7.560266666666666	1
839.1217006733207	0.7327666666666666	7.511466666666665	1
838.4936651466365	0.7327666666666666	7.5436	1
838.4936651466365	0.6923999999999999	7.6903999999999995	1
837.9427242434198	0.6557666666666665	7.6903999999999995	1
837.8164078658812	0.6353333333333332	7.6282666666666685	1
837.8164078658812	0.6106333333333331	7.516266666666666	1
837.6571871040882	0.5673333333333332	7.417066666666666	1
837.6571871040882	0.5589666666666665	7.608400000000001	1
837.2926455835203	0.5551333333333333	7.5018666666666665	1
837.2396863488507	0.5199333333333332	7.213333333333333	1
837.2396863488507	0.5137666666666666	7.1753333333333345	1
837.1381543788631	0.5087333333333331	7.285600000000001	1
837.1380052833335	0.4978666666666665	7.492	1
837.1380052833335	0.4978666666666665	7.439066666666666	1
836.775709196344	0.4962666666666666	7.369466666666667	1
836.8236938152849	0.4825333333333332	7.369466666666667	1
836.8236938152849	0.47416666666666646	7.474666666666665	1
836.5128287240808	0.4745	7.5108	1
836.5128287240808	0.4622666666666665	7.5961333333333325	1
836.0973293552863	0.44306666666666655	7.390533333333333	1
836.0973032630466	0.4478666666666665	7.340533333333333	1
836.0973032630466	0.4331999999999999	7.353466666666667	1
835.4249311329968	0.42003333333333326	7.1332	1
835.2712106744632	0.40636666666666654	7.061999999999999	1
835.2712106744632	0.40913333333333324	7.1616	1
835.2690516260918	0.40913333333333324	7.274933333333333	1
834.6506036107913	0.4018333333333332	7.493333333333333	1
834.6506036107913	0.39466666666666655	7.493333333333333	1
834.3378414200633	0.4004666666666666	7.553466666666666	1
834.3378414200633	0.4022999999999999	7.297466666666666	1
825.6902108721516	0.39143333333333324	7.280799999999999	1
833.8715903443859	0.3972999999999999	7.287333333333333	1
833.8715903443859	0.39326666666666654	7.1996	1
833.7169991306566	0.40683333333333316	7.2430666666666665	1
833.4074115057387	0.3924333333333332	7.254533333333332	1
833.4074115057387	0.39673333333333327	7.434266666666666	1
833.3068789381275	0.3861999999999999	7.4386666666666645	1
832.9503805050919	0.3861999999999999	7.528266666666665	1
832.9503805050919	0.3856999999999999	7.439733333333334	1
832.6347444345545	0.3921999999999999	7.439733333333334	1
832.1251708901872	0.3910333333333332	7.3389333333333315	1
832.1251708901872	0.3867999999999999	7.4896	1
831.7127720528454	0.39543333333333325	7.310933333333333	1
831.7127720528454	0.39649999999999985	7.571866666666665	1
831.710934487564	0.3863999999999999	7.627199999999999	1
831.664105046329	0.38416666666666655	7.6187999999999985	1
831.664105046329	0.3824999999999999	7.621866666666665	1
831.2007889396447	0.38923333333333326	7.639199999999999	1
830.4836974586549	0.38133333333333325	7.622666666666667	1
830.4836974586549	0.38133333333333325	7.312266666666666	1
830.485470651635	0.39083333333333325	7.3	1
829.9722661781842	0.3892333333333332	7.3	1
829.9722661781842	0.39889999999999987	7.415733333333333	1
829.8696069508837	0.3914333333333332	7.407466666666666	1
829.8696069508837	0.3910333333333332	7.523466666666667	1
829.8696519281299	0.39356666666666656	7.678933333333334	1
829.86958560468	0.3882333333333332	7.802933333333334	1
829.86958560468	0.3901333333333332	7.738666666666668	1
829.4575392739432	0.38896666666666657	7.3533333333333335	1
829.4585406845246	0.3899333333333332	7.2223999999999995	1
829.4585406845246	0.38889999999999986	7.2867999999999995	1
829.2549806026376	0.38889999999999986	7.32	1
828.643810939755	0.3993666666666666	7.051866666666666	1
828.643810939755	0.3908999999999999	7.051866666666666	1
828.6433873713771	0.39079999999999987	7.0572	1
828.6433873713771	0.3862333333333332	7.205466666666666	1
828.3262730687111	0.39116666666666655	7.378533333333332	1
828.0349716840099	0.3852999999999999	7.2826666666666675	1
828.0349716840099	0.3897333333333332	7.156666666666666	1
827.8290898511816	0.4000333333333332	7.162133333333333	1
827.8290898511816	0.3873666666666665	7.176533333333333	1
827.8290898511816	0.39126666666666654	7.151599999999998	1
827.3218573202347	0.38903333333333323	7.1492	1
826.8172117528646	0.38903333333333323	7.118533333333333	1
826.8172117528646	0.3904999999999999	7.278666666666666	1
826.1073628492749	0.3920999999999999	7.278666666666666	1
826.1045941591916	0.3847999999999999	7.292533333333332	1
826.1045941591916	0.3908999999999999	7.320933333333333	1
825.7966995616453	0.3850999999999999	7.3137333333333325	1
825.7966995616453	0.39776666666666655	7.369200000000001	1
825.7449031811075	0.3944999999999999	7.356000000000001	1
825.6013283770546	0.3945999999999999	7.2064	1
825.6013283770546	0.39003333333333323	7.186533333333333	1
825.2934546106094	0.39426666666666654	7.296133333333334	1
824.8364853339611	0.3967666666666666	7.338666666666665	1
824.8364853339611	0.3967666666666666	7.305866666666666	1
824.4341233652319	0.38446666666666657	6.829866666666667	1
824.3870982189402	0.3948333333333332	6.829866666666667	1
824.3870982189402	0.3911999999999999	6.842266666666666	1
824.0314355558572	0.3878333333333332	6.857733333333334	1
823.8831421937356	0.3875999999999999	6.917199999999999	1
823.8831421937356	0.39453333333333324	7.312933333333333	1
823.5298940259664	0.3956333333333332	7.277599999999999	1
823.5298940259664	0.39383333333333326	7.372	1
823.5297288252749	0.39269999999999994	7.224133333333333	1
822.7244460930606	0.38826666666666654	7.2392	1
822.7244460930606	0.3801999999999999	7.214666666666667	1
822.4243124745115	0.3801999999999999	7.091733333333333	1
822.2763536994925	0.38123333333333326	7.041333333333333	1
822.2763536994925	0.39623333333333327	7.041333333333333	1
822.225420394347	0.3845666666666666	7.003199999999999	1
822.222361113247	0.3944999999999999	6.874533333333334	1
822.222361113247	0.40576666666666655	6.768266666666666	1
821.8213930451675	0.3901333333333332	6.697066666666666	1
821.8214423865938	0.3887999999999999	6.809333333333333	1
821.8214423865938	0.3932333333333332	6.927733333333332	1
821.1221223792901	0.39839999999999987	6.998800000000001	1
821.1221223792901	0.3903999999999999	6.919066666666666	1
821.1206317909874	0.3927999999999999	6.825333333333332	1
821.0191923709382	0.3927999999999999	6.725999999999999	1
821.0191923709382	0.39599999999999985	6.528133333333334	1
820.6233392932932	0.38846666666666657	6.528133333333334	1
820.5209236509428	0.39393333333333325	6.640266666666666	1
820.5209236509428	0.39373333333333327	6.814266666666668	1
819.8226980677388	0.3919666666666666	6.769199999999999	1
819.7233687029649	0.3971666666666666	6.721733333333333	1
819.7233687029649	0.38553333333333323	6.6845333333333325	1
818.9263952860185	0.38369999999999993	6.492533333333333	1
818.6277492066903	0.38976666666666654	6.587733333333333	1
818.6277492066903	0.39093333333333324	6.376133333333334	1
818.6278957397802	0.39066666666666655	6.336133333333334	1
818.6278957397802	0.39066666666666655	6.310533333333333	1
818.6269461454483	0.40106666666666657	6.299733333333333	1
817.7352194123255	0.3815333333333332	6.299733333333333	1
817.7352194123255	0.38993333333333324	6.373333333333333	1
817.6327950812652	0.39093333333333324	6.398000000000001	1
817.4360922450923	0.3892666666666666	6.4712000000000005	1
817.4360922450923	0.40643333333333326	6.356000000000001	1
817.33932115739	0.3896999999999999	6.3958666666666675	1
816.8450812591593	0.4018666666666666	6.508266666666667	1
816.8450812591593	0.3877999999999999	6.600133333333334	1
816.544700162472	0.38569999999999993	6.5172	1
816.544700162472	0.38756666666666656	6.375733333333333	1
816.1475031044533	0.3948999999999999	6.187866666666666	1
815.2634677740318	0.3948999999999999	6.430000000000001	1
815.2634677740318	0.38679999999999987	6.430000000000001	1
815.2634594965479	0.3893333333333332	6.4816	1
815.076211619347	0.3825666666666666	6.484	1
815.076211619347	0.3880666666666665	6.490266666666667	1
815.1171976666368	0.38483333333333325	6.442933333333333	1
814.7716605258404	0.39036666666666653	6.361466666666667	1
814.7716605258404	0.39526666666666654	6.28	1
814.7716662026502	0.3840999999999999	6.327866666666667	1
814.7716662026502	0.39193333333333324	6.4097333333333335	1
814.3749959362336	0.3821666666666666	6.234933333333333	1
813.9816961556685	0.38893333333333324	6.327200000000001	1
813.9816961556685	0.38893333333333324	6.3954666666666675	1
813.9826690694362	0.3979666666666665	6.360000000000001	1
813.982505241788	0.39916666666666656	6.360000000000001	1
813.982505241788	0.3918666666666666	6.358533333333335	1
813.1002992282912	0.3897333333333332	6.04	1
813.1014869394261	0.39156666666666656	6.0582666666666665	1
813.1014869394261	0.38543333333333324	6.181333333333333	1
813.1018041602306	0.39003333333333323	6.280666666666666	1
813.1018041602306	0.3872999999999999	6.218666666666667	1
812.7492196025272	0.39006666666666656	6.3276	1
811.92599407586	0.3957999999999999	6.423733333333334	1
811.92599407586	0.3979666666666666	6.413733333333335	1
811.8276063954153	0.3979666666666666	6.459733333333333	1
811.7838077389029	0.3925999999999999	6.472	1
811.7838077389029	0.3896333333333332	6.472	1
811.4368964305673	0.39336666666666653	6.4858666666666664	1
811.437930982121	0.39189999999999986	6.4728	1
811.437930982121	0.38943333333333324	6.525333333333333	1
811.4368429316372	0.3883999999999999	6.514666666666667	1
811.4368429316372	0.3821999999999999	6.413333333333333	1
811.4368429316372	0.3821666666666666	6.259199999999999	1
810.6563833074605	0.39043333333333324	6.182533333333333	1
810.6563833074605	0.4014666666666666	6.494	1
810.5627756664967	0.39553333333333324	6.524933333333333	1
810.2667650012097	0.39553333333333324	6.286933333333333	1
810.2667650012097	0.39149999999999985	6.5196000000000005	1
809.7826127648224	0.3819999999999999	6.5196000000000005	1
809.3920718866241	0.3903666666666666	6.527866666666667	1
809.3920718866241	0.3803999999999999	6.470666666666666	1
809.2982278448695	0.3838999999999999	6.468000000000001	1
808.4272463152151	0.3822999999999999	6.5014666666666665	1
808.4272463152151	0.3778666666666666	6.3166666666666655	1
808.2286300046458	0.39453333333333324	6.588933333333334	1
808.2286300046458	0.3938666666666666	6.494400000000001	1
808.1342517906054	0.38786666666666664	6.112	1
808.1340906134793	0.39439999999999986	6.096000000000001	1
808.1340906134793	0.39133333333333326	6.239466666666667	1
808.0370973760192	0.39133333333333326	6.860666666666666	1
807.7459753031796	0.3879999999999999	6.860666666666666	1
807.7459753031796	0.39523333333333327	6.977600000000001	1
807.3588570618929	0.3950333333333332	6.2832	1
806.9716365209043	0.38323333333333326	6.442266666666666	1
806.9716365209043	0.3993333333333332	6.715066666666667	1
806.7820786678631	0.39303333333333323	6.249333333333334	1
806.7820786678631	0.38973333333333327	6.429333333333332	1
806.1991249116875	0.3970999999999999	6.726	1
806.0100168879269	0.38246666666666657	6.6992	1
806.0100168879269	0.39966666666666656	6.7914666666666665	1
806.0113613961134	0.3950666666666666	6.825333333333333	1
805.1469771080689	0.3950666666666666	6.651466666666667	1
805.1469771080689	0.3893666666666666	6.651466666666667	1
804.8582352912517	0.3842666666666666	6.630266666666667	1
804.8582125876773	0.3831666666666666	6.578400000000001	1
804.8582125876773	0.3917666666666666	6.5288	1
804.7590833978799	0.3797666666666666	6.546800000000001	1
804.7590833978799	0.3860999999999999	6.3580000000000005	1
804.7600366217424	0.38943333333333324	6.337866666666667	1
804.4721363491664	0.38553333333333323	6.3816	1
804.4721363491664	0.3899333333333332	6.4964	1
804.3768642760357	0.3907333333333332	6.5436000000000005	1
804.3768642760357	0.3771666666666666	6.334666666666667	1
804.3768642760357	0.3771666666666666	5.765466666666666	1
803.7066871388823	0.39116666666666655	5.4704	1
803.6093866321927	0.3915999999999999	5.4704	1
803.6093866321927	0.3845666666666666	5.3948	1
803.2243683390524	0.3940333333333333	4.2984	1
803.2243683390524	0.40129999999999993	3.6736	1
803.2243683390524	0.38316666666666654	2.5654666666666666	1
802.7515684862948	0.3926666666666665	2.4886666666666666	1
802.7515684862948	0.38356666666666656	2.222266666666666	1
802.4632392249056	0.4000333333333332	1.3509333333333329	1
801.6067382324371	0.39723333333333327	0.38573333333333326	1
801.6067382324371	0.39576666666666654	0.35999999999999993	1
801.6067417903083	0.39576666666666654	0.3557333333333332	1
801.4158770369266	0.39166666666666655	0.2737333333333332	1
801.4158770369266	0.3927333333333332	0.2737333333333332	1
801.2237059923789	0.3832999999999999	0.20253333333333348	1
801.2240787421515	0.3903333333333332	0.2001333333333335	1
801.2240787421515	0.39423333333333327	0.19973333333333354	1
801.129076237438	0.3928999999999999	0.19986666666666683	1
801.129076237438	0.38373333333333326	0.19720000000000018	1
800.748791034653	0.3988999999999999	0.07586666666666673	1
800.367790735551	0.3802999999999999	0.04133333333333337	1
800.367790735551	0.39443333333333325	0.040000000000000036	1
800.3713076444647	0.38376666666666653	0.04013333333333337	1
