wavelength(nm)	flourescence PMT(V)	ti_saph Power (V)	Gain (V)
800.3687861236297	0.3880999999999999	0.040000000000000036	1
800.3687861236297	0.38369999999999993	0.040000000000000036	1
800.3687861236297	0.3904666666666666	0.08853333333333341	1
801.129353274929	0.38693333333333324	0.10986666666666677	1
801.129353274929	0.3927333333333332	0.20066666666666683	1
801.2248413569044	0.3820666666666666	0.2009333333333335	1
801.2257663055328	0.39553333333333324	0.20106666666666684	1
801.2257830433775	0.38803333333333323	0.2018666666666668	1
801.2257830433775	0.38803333333333323	0.25559999999999994	1
801.4144242336147	0.3924333333333332	0.2818666666666665	1
801.6042515777104	0.3902999999999999	0.2818666666666665	1
801.6042476081747	0.3824999999999999	0.3285333333333332	1
801.6042476081747	0.39123333333333327	0.3629333333333332	1
802.5016373431822	0.3933666666666666	0.6163999999999998	1
802.8428054141506	0.3882333333333332	1.4482666666666664	1
802.8428054141506	0.3936999999999999	2.3768	1
802.8428253050565	0.38629999999999987	2.4838666666666662	1
802.9403361411308	0.3887333333333332	2.6670666666666665	1
803.4185949455765	0.3777333333333332	3.084666666666667	1
803.4185949455765	0.38833333333333325	4.799733333333333	1
803.6098010082011	0.39793333333333325	5.0676	1
803.9939490676842	0.39793333333333325	5.683999999999999	1
804.085335724548	0.38373333333333326	5.683999999999999	1
804.085335724548	0.3945999999999999	5.829733333333333	1
804.3741462815003	0.38393333333333324	5.8402666666666665	1
804.4730329108986	0.3945999999999999	6.2822666666666676	1
804.4730329108986	0.37943333333333323	6.435200000000001	1
804.473027288789	0.38343333333333324	6.543466666666666	1
804.8564867544127	0.3891333333333332	6.601733333333334	1
804.8553915443094	0.3884999999999999	6.496133333333334	1
804.8553915443094	0.38093333333333323	6.4668	1
804.8564083217631	0.3950999999999999	6.4352	1
804.8554404708431	0.3950999999999999	6.400266666666668	1
804.8563017908976	0.38443333333333324	6.369200000000001	1
804.8563017908976	0.39553333333333324	6.369200000000001	1
805.143656623759	0.38596666666666657	6.5043999999999995	1
806.0101342292911	0.3820999999999999	6.7085333333333335	1
806.0101342292911	0.38633333333333325	7.042	1
806.010139548338	0.3927666666666666	7.025333333333333	1
806.0102047866457	0.3861333333333333	6.995600000000001	1
806.4906465715683	0.4090666666666665	7.0810666666666675	1
806.4906465715683	0.3924999999999999	6.929733333333334	1
806.8776608117483	0.38316666666666654	6.284933333333333	1
807.1687443887928	0.38429999999999986	6.436533333333333	1
807.3556596406642	0.38429999999999986	6.450266666666667	1
807.3556596406642	0.38893333333333324	6.377866666666667	1
807.6511447947046	0.39833333333333326	6.377866666666667	1
807.7450758055181	0.38089999999999996	6.449066666666666	1
807.7450758055181	0.38876666666666654	6.5393333333333326	1
807.7450701907187	0.38933333333333325	6.809866666666666	1
808.1315127238333	0.3879666666666665	6.808266666666666	1
808.1314697705168	0.3994999999999999	6.449600000000001	1
808.1314697705168	0.3905666666666665	6.360400000000001	1
808.1320040587292	0.38583333333333325	6.4224000000000006	1
808.2259325051443	0.39066666666666655	6.578	1
808.4216148247309	0.38703333333333323	6.589066666666667	1
808.4216148247309	0.38703333333333323	6.4446666666666665	1
808.5200457496665	0.38906666666666656	6.690533333333333	1
809.3930011425084	0.39206666666666656	6.690533333333333	1
809.3930011425084	0.3929999999999999	6.540266666666667	1
809.3930641460652	0.3824333333333332	6.445866666666667	1
809.7808171091126	0.3882333333333332	6.3764	1
810.2643222969625	0.3919999999999999	6.2616	1
810.2643222969625	0.3791666666666666	6.1773333333333325	1
810.2641891819532	0.39266666666666655	6.167066666666668	1
810.6972019413124	0.3971999999999999	6.650933333333334	1
810.6972019413124	0.3838666666666666	6.9058666666666655	1
810.6555908085393	0.38466666666666655	6.600933333333334	1
811.0467939343927	0.38703333333333323	6.2516	1
811.0467895282412	0.38703333333333323	6.148533333333334	1
811.0467895282412	0.38946666666666657	6.156266666666667	1
811.2940218527077	0.39106666666666656	6.156266666666667	1
811.4380951627733	0.3923666666666666	6.377866666666669	1
811.5336311593154	0.3821999999999999	6.4050666666666665	1
811.5336311593154	0.38946666666666657	6.196266666666667	1
811.7809665229536	0.3845333333333332	6.161466666666667	1
811.7808167568149	0.3950666666666666	6.670266666666667	1
811.7808167568149	0.3953999999999999	6.502933333333334	1
811.8249685911261	0.3859999999999999	6.398666666666668	1
811.8259710915412	0.3915999999999999	6.525866666666667	1
811.926641284613	0.38193333333333324	6.676266666666666	1
811.926641284613	0.38193333333333324	6.537733333333334	1
812.802546182128	0.3776666666666666	6.436000000000001	1
813.097635910669	0.38343333333333324	6.436000000000001	1
813.100121724782	0.39616666666666656	6.2518666666666665	1
813.100121724782	0.3883999999999999	6.254133333333334	1
813.1000694895523	0.38329999999999986	6.153733333333334	1
813.1000694895523	0.3879999999999999	6.115333333333334	1
813.1000694895523	0.39163333333333317	6.245733333333334	1
813.9802639219672	0.4003333333333332	6.372666666666667	1
813.9808715790932	0.38369999999999993	6.3626666666666685	1
814.1874678702669	0.38256666666666655	6.359866666666668	1
814.1874678702669	0.38616666666666655	6.178133333333333	1
814.7222088039978	0.39269999999999994	6.328799999999999	1
814.7679716388811	0.39269999999999994	6.633733333333333	1
814.7679453029452	0.39429999999999993	6.633733333333333	1
814.7679453029452	0.3853333333333332	6.6433333333333335	1
815.12005609164	0.3826666666666665	6.600666666666668	1
815.1191142754811	0.39863333333333323	6.599466666666667	1
815.1191142754811	0.38603333333333323	6.563866666666667	1
815.2628094180476	0.38569999999999993	6.4518666666666675	1
815.2628761537185	0.3949999999999999	6.343333333333334	1
815.3140718139539	0.3855333333333333	6.233999999999999	1
815.3140718139539	0.39083333333333325	6.445466666666667	1
815.5584102562225	0.39666666666666656	6.5840000000000005	1
816.5421085514223	0.3915333333333333	6.4901333333333335	1
816.840331753981	0.3915333333333333	6.508266666666667	1
816.840331753981	0.3911999999999999	6.5840000000000005	1
816.8434993170672	0.3873333333333332	6.5840000000000005	1
817.3368776611898	0.3902999999999999	6.5272	1
817.6386118061248	0.39216666666666655	6.3736000000000015	1
817.6386118061248	0.38983333333333325	6.440933333333334	1
817.6346382022704	0.3886999999999999	6.5040000000000004	1
817.7351805249768	0.3835666666666666	6.602266666666667	1
817.7351805249768	0.37686666666666657	6.472666666666667	1
818.4826031829193	0.3873333333333332	6.5696	1
818.6237935604664	0.3953666666666666	6.372666666666667	1
818.6281965336933	0.39473333333333327	6.3630666666666675	1
818.6281965336933	0.39473333333333327	6.415733333333335	1
818.7252603498874	0.3909999999999999	6.697066666666667	1
818.6811129772956	0.38693333333333324	6.697066666666667	1
818.9245685796742	0.38906666666666656	6.6979999999999995	1
818.9245685796742	0.3845333333333332	6.414000000000001	1
819.8221238646249	0.3901333333333333	6.619466666666667	1
819.8220021316308	0.38536666666666664	6.721066666666665	1
819.8220021316308	0.39129999999999987	6.7204	1
819.8201360815697	0.38943333333333324	6.7114666666666665	1
820.5715315564141	0.3856333333333332	6.682666666666667	1
820.5717486337079	0.3820666666666666	6.510933333333334	1
820.5717486337079	0.3873666666666666	6.582666666666666	1
820.6211595894308	0.39229999999999987	6.750933333333332	1
820.9754556657091	0.39229999999999987	6.9770666666666665	1
821.0195592352062	0.3908999999999999	6.9770666666666665	1
821.0195592352062	0.3803666666666666	7.0036	1
821.3217041483501	0.3797333333333332	6.9288	1
821.7751867236522	0.3752333333333332	6.8683999999999985	1
821.7751867236522	0.3793666666666666	6.892666666666667	1
821.8746830069496	0.39076666666666654	6.803066666666667	1
822.2198043468824	0.3882666666666666	6.768400000000001	1
822.2198043468824	0.3847666666666666	6.920933333333332	1
822.2198043468824	0.39883333333333326	6.942400000000001	1
822.3193378587165	0.3785333333333332	6.8221333333333325	1
822.3220877996463	0.3753999999999999	6.7788	1
822.3220877996463	0.3753999999999999	6.960133333333333	1
822.7234616221787	0.39526666666666654	7.2768	1
822.7215953840589	0.3977333333333332	7.2768	1
823.5283112786714	0.3868666666666665	7.2426666666666675	1
823.5283112786714	0.3838999999999999	7.2754666666666665	1
823.5284374746848	0.38856666666666656	7.239466666666666	1
824.2139447112631	0.3847666666666666	7.169333333333334	1
824.3863850939214	0.3799999999999999	7.112133333333334	1
824.3863850939214	0.3856333333333332	7.141066666666665	1
824.3863077265613	0.3828333333333332	7.2396	1
824.3863118738644	0.3856333333333332	7.1786666666666665	1
824.3863118738644	0.3955666666666665	7.046	1
824.6902805927333	0.3955666666666665	7.1804	1
824.7920966157797	0.38843333333333324	7.209200000000001	1
825.1934823108072	0.38559999999999994	7.209200000000001	1
825.1934823108072	0.3919666666666666	7.1290666666666676	1
825.5968396746995	0.38673333333333326	7.105466666666665	1
825.7009592221987	0.3949999999999999	7.150133333333333	1
825.7007940017347	0.3734999999999999	7.1597333333333335	1
825.7007940017347	0.38583333333333325	7.250533333333333	1
825.7984919672372	0.38603333333333323	7.444933333333332	1
826.1026414291435	0.3990999999999999	7.366533333333334	1
826.1026414291435	0.39086666666666653	7.314399999999999	1
826.1034650873088	0.3816999999999999	7.300933333333332	1
826.8146750448813	0.3816999999999999	7.212533333333332	1
826.8146750448813	0.39886666666666654	7.405333333333331	1
826.8146750448813	0.3913666666666666	7.405333333333331	1
826.914288109329	0.38766666666666655	7.381999999999998	1
827.0155823747444	0.38679999999999987	7.243733333333333	1
827.3191814215293	0.39493333333333325	7.137999999999999	1
827.3191814215293	0.4019999999999999	7.260133333333333	1
827.8283334272824	0.38596666666666657	7.24	1
827.8293936623072	0.39036666666666664	7.210799999999999	1
827.8293936623072	0.39569999999999994	7.175866666666668	1
828.0302283885185	0.3871999999999999	7.167466666666666	1
828.2380027502176	0.3798333333333332	7.225066666666665	1
828.5019168926876	0.3798333333333332	7.114533333333332	1
828.5019168926876	0.3903333333333332	7.191599999999998	1
828.6450783946469	0.39069999999999994	7.191599999999998	1
828.8474237276804	0.37896666666666656	7.329333333333334	1
829.2550938646452	0.3831999999999999	7.512133333333333	1
829.2550938646452	0.38156666666666655	7.592933333333332	1
829.5610595040254	0.38853333333333323	7.286533333333334	1
829.5610543381051	0.39316666666666655	7.605066666666667	1
829.5610543381051	0.3805333333333332	7.558533333333331	1
829.8716575890762	0.38929999999999987	7.566533333333333	1
829.8651072736836	0.3831666666666666	7.506266666666665	1
829.9685699474106	0.36403333333333326	7.616666666666666	1
829.9685699474106	0.36403333333333326	7.680666666666666	1
830.4823885938116	0.3818999999999999	7.468933333333333	1
830.3799534152407	0.3822333333333332	7.468933333333333	1
830.3799534152407	0.39309999999999995	7.461333333333332	1
830.8377808659532	0.3867333333333332	7.4068	1
830.8366469242369	0.3894333333333333	7.485333333333331	1
831.2000881738816	0.40613333333333324	7.702666666666667	1
831.2000881738816	0.3924666666666666	7.765866666666668	1
831.7101515173292	0.3869999999999999	7.649066666666666	1
831.7101256417533	0.3879666666666665	7.600266666666666	1
831.9168220830388	0.3849333333333332	7.547066666666666	1
831.9168220830388	0.3944999999999999	7.320933333333333	1
832.1732189592753	0.3944999999999999	7.469199999999998	1
832.1732189592753	0.3922666666666666	7.504	1
832.1732189592753	0.3971999999999999	7.504	1
832.5345159629467	0.40476666666666655	7.447466666666666	1
832.7097336376755	0.3879999999999999	7.3504	1
833.3053263840584	0.3993666666666666	7.380799999999999	1
833.3053263840584	0.4005999999999999	7.43	1
833.405100911082	0.3968333333333332	7.395733333333334	1
833.4094895163363	0.4045333333333332	7.322933333333333	1
833.8724404896145	0.3948333333333332	7.312266666666668	1
833.8724404896145	0.3925999999999999	7.3675999999999995	1
834.0214986098749	0.3949666666666666	7.480666666666666	1
834.3368934482572	0.3927999999999999	7.43	1
834.3368934482572	0.3927999999999999	7.353866666666666	1
834.6478350371403	0.40106666666666657	7.353866666666666	1
834.463875751629	0.3988333333333332	7.195333333333335	1
835.0626395163924	0.3914666666666666	7.2001333333333335	1
835.0626395163924	0.40909999999999985	7.184666666666667	1
835.2681037555095	0.40106666666666657	7.4016	1
835.4772339703844	0.4122999999999999	7.488266666666665	1
835.4772339703844	0.42073333333333324	7.4876	1
835.4772271155703	0.4059666666666666	7.418533333333332	1
835.7876714013753	0.4238999999999999	7.317733333333332	1
836.0459293291728	0.4344999999999999	7.216666666666667	1
836.0459293291728	0.4449333333333332	7.248799999999999	1
836.5119910417699	0.4449333333333332	7.4934666666666665	1
836.8226705677849	0.46136666666666654	7.4934666666666665	1
836.8225541957125	0.4699333333333332	7.619999999999998	1
836.8225541957125	0.4805333333333332	7.713733333333335	1
837.1316032557814	0.49149999999999994	7.554133333333333	1
837.2932156533432	0.5007333333333333	7.523066666666667	1
837.2932156533432	0.5234333333333332	7.465466666666666	1
837.3417788240033	0.5313999999999999	7.5188	1
837.762809314198	0.5272666666666666	7.550533333333333	1
837.7627067371171	0.5687333333333332	7.266266666666667	1
837.7627067371171	0.5702999999999999	7.244799999999999	1
838.178483727492	0.5702999999999999	7.483466666666667	1
838.1790388767675	0.6087666666666666	7.653733333333333	1
838.1790388767675	0.6188333333333332	7.653733333333333	1
838.1782975529142	0.6342333333333332	7.613733333333333	1
838.6999074537429	0.6228333333333332	7.545733333333333	1
839.11590083041	0.6688	7.464399999999999	1
839.11590083041	0.7261333333333333	7.4193333333333324	1
839.224063724805	0.7373333333333332	7.415466666666668	1
839.4352791103897	0.7694333333333333	7.428666666666665	1
839.4352791103897	0.7519	7.3767999999999985	1
839.5326132513715	0.7805666666666665	7.357466666666666	1
839.7466448313659	0.8016999999999999	7.390666666666666	1
840.3758023134636	0.8016999999999999	7.361066666666666	1
840.3758023134636	0.8513333333333333	7.4109333333333325	1
840.3759473760662	0.9463999999999999	7.4109333333333325	1
840.6903212007667	0.9861333333333332	7.452266666666665	1
840.9003009324927	1.0700999999999998	7.5490666666666675	1
840.9003009324927	1.0594666666666666	7.311999999999999	1
841.0035128592222	1.0705333333333333	7.223999999999999	1
841.3167661422519	1.1107333333333331	7.309866666666667	1
841.3167661422519	1.1479333333333333	7.321866666666665	1
841.3183997692568	1.1814666666666664	7.321066666666667	1
841.3183704906414	1.2134666666666665	7.307600000000001	1
841.3183533391706	1.1813666666666665	7.126933333333333	1
841.3183533391706	1.1813666666666665	7.062133333333333	1
841.7371973844254	1.2286666666666666	6.983066666666667	1
841.8437023517836	1.3174333333333332	6.983066666666667	1
841.8437023517836	1.3338666666666665	6.973466666666667	1
842.1164413373426	1.3998333333333333	7.038	1
842.2647581156664	1.5067333333333333	6.9996	1
842.6891650715227	1.6096666666666666	7.2001333333333335	1
842.6891650715227	1.7538333333333334	7.2436	1
843.1093108298918	1.8647999999999998	7.295066666666665	1
842.957981504011	1.9520333333333333	7.306133333333334	1
843.4244540394353	1.9765333333333335	7.324399999999999	1
843.4295999604353	2.174833333333333	7.552666666666667	0.40000000000000013
843.5321499288784	1.9299666666666666	7.552666666666667	1
843.5321499288784	1.2388666666666666	7.4930666666666665	1
844.4336187778513	1.6455666666666666	5.460666666666666	1
844.5904349880187	1.8893	4.509600000000001	1
844.5904349880187	1.899833333333333	4.1117333333333335	1
844.8024738307964	1.6845666666666665	3.4073333333333333	1
844.9075773323402	1.5149	2.7177333333333333	1
842.6896483842654	1.8105666666666669	7.139333333333332	1
842.3712662001442	1.6404333333333334	7.024399999999999	1
842.3715727073757	1.5490666666666666	6.945333333333333	1
841.8423102219144	1.5083666666666666	6.862266666666668	1
841.8423102219144	1.3952333333333333	7.002133333333334	1
841.737553895162	1.3472	7.1916	1
841.7393339510796	1.3447666666666664	7.2139999999999995	1
841.4226747735702	1.3447666666666664	7.137066666666667	1
841.4226747735702	1.2651333333333332	7.099600000000001	1
841.317937740734	1.1977666666666666	7.099600000000001	1
841.318029184369	1.1825	7.2064	1
841.318029184369	1.1918666666666664	7.233199999999998	1
841.0034255933268	1.1321999999999999	7.467599999999999	1
840.8492984135673	1.1229	7.4450666666666665	1
840.6872973424813	1.0938666666666665	7.448533333333332	1
840.6872973424813	1.0439333333333332	7.561066666666665	1
840.6861848758409	1.0296666666666665	7.560533333333333	1
840.0614829227835	0.9665666666666666	7.435866666666666	1
840.0614829227835	0.8791666666666667	7.355999999999999	1
839.538054198112	0.8791666666666667	7.467599999999999	1
839.4349664083169	0.7917999999999998	7.431199999999999	1
839.4341101823985	0.7976333333333332	7.431199999999999	1
839.4341101823985	0.7707666666666665	7.356533333333332	1
839.11947719949	0.7488666666666666	7.433466666666667	1
838.9633560510919	0.7329333333333332	7.420133333333333	1
838.9633560510919	0.7182333333333333	7.459866666666667	1
838.6988352849004	0.6883333333333332	7.559200000000001	1
838.1787128604084	0.6365999999999998	7.579733333333332	1
838.1786469084692	0.6242	7.587999999999999	1
838.1786469084692	0.6209666666666666	7.443333333333333	1
837.614612504227	0.5672333333333331	7.212400000000001	1
837.3955996981035	0.5672333333333331	7.097066666666667	1
837.3955996981035	0.5545333333333332	7.387199999999999	1
837.3457646179279	0.5349999999999999	7.387199999999999	1
837.2431408088461	0.5338333333333333	7.483999999999999	1
837.0871763390942	0.5307	7.404799999999999	1
837.0871763390942	0.5180666666666666	7.476933333333333	1
837.0871763390942	0.4974333333333332	7.647333333333333	1
836.8236844379993	0.4975666666666666	7.6452	1
836.8236844379993	0.48523333333333324	7.591733333333332	1
836.5120509300483	0.46619999999999995	7.435866666666664	1
836.0480341863059	0.4486999999999999	7.276533333333333	1
836.048137953334	0.4326333333333332	7.246266666666667	1
836.048137953334	0.4326333333333332	7.3996	1
835.6292707303325	0.42879999999999996	7.462799999999999	1
835.4280012122482	0.41606666666666653	7.462799999999999	1
835.2673777986868	0.4040666666666666	7.462133333333331	1
835.2673777986868	0.4210333333333332	7.395466666666667	1
834.8539404896229	0.40953333333333325	7.411866666666665	1
834.6488127597748	0.39843333333333325	7.4942666666666655	1
834.6488127597748	0.3954999999999999	7.513333333333332	1
834.3379001030196	0.3969666666666666	7.49	1
834.2315611085291	0.40246666666666653	7.381866666666666	1
833.973617807645	0.39383333333333326	7.413866666666666	1
833.973617807645	0.3954666666666666	7.534266666666666	1
833.9741725570287	0.3954666666666666	7.4708	1
833.4056063660071	0.3882333333333332	7.235066666666665	1
833.4055701690328	0.4061999999999999	7.235066666666665	1
833.4055701690328	0.39663333333333317	7.168266666666665	1
833.3589423344234	0.3975999999999999	7.244933333333333	1
833.0502632963136	0.39586666666666653	7.3363999999999985	1
833.0502632963136	0.3952333333333332	7.413866666666665	1
833.048338817513	0.3943666666666666	7.496933333333333	1
832.5345044497013	0.38483333333333325	7.584133333333333	1
832.1712368509903	0.40093333333333325	7.662399999999999	1
832.1712368509903	0.3956999999999999	7.6251999999999995	1
831.7111123841813	0.3860999999999999	7.628666666666667	1
831.7111123841813	0.3919999999999999	7.592133333333331	1
831.7111123841813	0.3919999999999999	7.558666666666666	1
831.7121611506743	0.38946666666666657	7.4723999999999995	1
831.1991170414615	0.39039999999999986	7.4723999999999995	1
831.0448253639955	0.3874666666666666	7.4201333333333315	1
831.0448253639955	0.38239999999999985	7.413333333333333	1
830.4834975102428	0.39353333333333324	7.437733333333332	1
830.5238642166548	0.39156666666666656	7.318266666666667	1
829.9712410285953	0.3925999999999999	7.5396	1
829.9712410285953	0.39233333333333326	7.535333333333333	1
829.8678753359293	0.3929666666666666	7.514399999999999	1
829.8679438503877	0.3871666666666666	7.3848	1
829.8679438503877	0.3831333333333332	7.35	1
829.5634756212596	0.3831333333333332	7.614799999999999	1
829.4596360894678	0.3873999999999999	7.6036	1
829.4596376847545	0.3864333333333332	7.6036	1
829.4596376847545	0.39639999999999986	7.507066666666666	1
829.2549670649624	0.39779999999999993	7.658666666666668	1
828.6450531458756	0.3967666666666666	7.630933333333332	1
828.6450374240537	0.3873999999999999	7.449733333333332	1
828.6450374240537	0.3941999999999999	7.4259999999999975	1
828.2378282309452	0.39256666666666656	7.515066666666665	1
828.1357758674181	0.39156666666666656	7.547866666666666	1
828.1357758674181	0.38506666666666656	7.441599999999998	1
827.8295611062393	0.37943333333333323	7.3096000000000005	1
827.8282414574193	0.37943333333333323	7.319066666666666	1
827.3201651789219	0.38856666666666656	7.3064	1
827.3201651789219	0.38746666666666657	7.3064	1
827.320219147861	0.39126666666666654	7.359733333333332	1
826.9160724316815	0.3960999999999999	7.224399999999999	1
826.9160724316815	0.3969999999999999	7.138533333333335	1
826.8144997020323	0.4003666666666666	7.2030666666666665	1
826.4082310406949	0.38706666666666656	7.2834666666666665	1
826.1040337369749	0.3852666666666666	7.028533333333333	1
826.1040337369749	0.38873333333333326	7.305600000000001	1
826.103524257968	0.3861333333333333	7.356533333333333	1
825.7993628598128	0.3826333333333332	7.501599999999999	1
825.7008596626068	0.3826333333333332	7.254933333333334	1
825.7008596626068	0.3974333333333332	7.173733333333333	1
825.6446585949512	0.39456666666666657	7.173733333333333	1
825.2402538438007	0.3989666666666666	7.1404	1
825.2402538438007	0.38573333333333326	7.124666666666665	1
824.8382991888311	0.3869999999999999	7.2623999999999995	1
824.6894472700791	0.3957333333333332	7.156666666666666	1
824.3349864699313	0.3903333333333332	6.8435999999999995	1
824.3349864699313	0.38399999999999984	7.044533333333332	1
824.3344090498373	0.3909666666666665	7.3187999999999995	1
824.0264746517073	0.39066666666666655	7.448266666666667	1
824.0279023035791	0.40203333333333324	7.364533333333332	1
824.0279023035791	0.40203333333333324	7.297466666666666	1
823.5292954305472	0.3923999999999999	7.178133333333332	1
823.528474457502	0.3913666666666666	7.178133333333332	1
823.528474457502	0.3872666666666666	6.935866666666666	1
822.7214445208443	0.38309999999999994	7.0771999999999995	1
822.3230013070261	0.38716666666666655	7.128266666666665	1
822.3220610652846	0.39626666666666654	6.94	1
822.3220610652846	0.39253333333333323	6.960666666666666	1
822.2206250298862	0.39056666666666656	7.125600000000001	1
821.8723989218588	0.37443333333333323	7.152400000000001	1
821.8723989218588	0.3863666666666666	6.979866666666667	1
821.8234283271953	0.39553333333333324	6.974933333333333	1
821.82059608609	0.39553333333333324	6.917066666666666	1
821.1166647466931	0.3822666666666666	6.9214666666666655	1
821.1166647466931	0.38973333333333327	6.9214666666666655	1
820.9754105121958	0.38609999999999994	6.9328	1
820.9754601608788	0.3923333333333332	6.961333333333332	1
820.6220319953933	0.3897333333333332	6.8512	1
820.6220319953933	0.3861333333333333	6.6524	1
820.5207771814748	0.3950999999999999	6.6495999999999995	1
819.8220207390596	0.38893333333333324	6.772399999999999	1
819.8220207390596	0.38693333333333324	6.700799999999999	1
819.8220390811983	0.3912999999999999	6.7085333333333335	1
818.9786194311864	0.38806666666666656	6.688266666666666	1
818.7807237900944	0.38806666666666656	6.559466666666667	1
818.7807237900944	0.39416666666666655	6.7216000000000005	1
818.6237429211732	0.39276666666666654	6.7216000000000005	1
818.6236420224011	0.3911999999999999	6.4220000000000015	1
818.6236420224011	0.3840999999999999	6.389466666666667	1
818.6274406023942	0.3977333333333332	6.373733333333335	1
818.4824886966635	0.3872333333333332	6.338	1
817.6344989670739	0.3792333333333332	6.350133333333334	1
817.6344989670739	0.3930666666666665	6.3638666666666674	1
817.6388061972776	0.3973999999999999	6.399333333333334	1
817.4342289292284	0.38643333333333324	6.513599999999999	1
817.4342289292284	0.3858333333333332	6.558133333333333	1
817.4333498103018	0.3856333333333332	6.6048	1
816.8433494982917	0.3856333333333332	6.612800000000001	1
816.5420416178966	0.3827333333333332	6.565733333333333	1
816.5420416178966	0.40126666666666655	6.565733333333333	1
816.3016801059819	0.3935999999999999	6.3710666666666675	1
815.4157704995949	0.3783666666666665	6.151466666666667	1
815.2618157904141	0.3850333333333333	6.252266666666666	1
815.2618157904141	0.38446666666666657	6.476266666666667	1
815.2618980897512	0.3899999999999999	6.653999999999999	1
815.2618727248614	0.39316666666666655	6.709999999999998	1
815.2618727248614	0.3801333333333332	6.720533333333333	1
814.8954579126017	0.38616666666666655	6.7506666666666675	1
814.7683966989946	0.38843333333333324	6.7476	1
814.767931926773	0.38843333333333324	6.715599999999999	1
814.767931926773	0.38066666666666654	6.722533333333333	1
814.7689789888965	0.3865999999999999	6.722533333333333	1
814.2318465820375	0.40279999999999994	6.6605333333333325	1
814.2318465820375	0.39026666666666654	6.040133333333333	1
814.2318465820375	0.3904666666666666	6.351466666666668	1
813.9817482953248	0.3908999999999999	6.400533333333335	1
813.9810619005766	0.39923333333333316	6.4152000000000005	1
813.9810619005766	0.3934666666666665	6.3564	1
813.099867289138	0.3878666666666666	6.207066666666666	1
813.1020844042289	0.3873666666666666	6.256	1
813.0989527113298	0.3788666666666666	6.282399999999999	1
813.0989527113298	0.3965999999999999	6.288133333333334	1
812.6598449848673	0.3965999999999999	6.215599999999999	1
811.9219309601367	0.3866333333333332	6.215599999999999	1
811.9219309601367	0.38916666666666655	6.290666666666667	1
811.8258923642146	0.3896333333333333	6.447066666666668	1
811.7829694755752	0.38999999999999985	6.439333333333334	1
811.7806834170904	0.3802666666666666	6.450533333333333	1
811.7806834170904	0.3935999999999999	6.4278666666666675	1
811.5353369200363	0.3894999999999999	6.277333333333334	1
811.4350521839098	0.3952333333333332	6.070533333333333	1
811.4363544257537	0.3772999999999999	6.289333333333333	1
811.4363544257537	0.3852999999999999	6.372533333333334	1
811.0466613355153	0.38556666666666656	6.557733333333334	1
811.0466954099364	0.38556666666666656	6.519333333333334	1
811.0466954099364	0.3922333333333332	6.391466666666667	1
810.7498343475819	0.3873666666666665	6.391466666666667	1
810.7498291843269	0.39853333333333324	6.160533333333333	1
810.267724936869	0.38399999999999984	6.226800000000001	1
810.267724936869	0.3863666666666666	6.290666666666666	1
809.7810651761565	0.38399999999999995	6.294933333333334	1
809.7810413348291	0.3948999999999999	6.452000000000001	1
809.7810413348291	0.3874999999999999	6.579466666666667	1
809.7810112092616	0.39383333333333326	6.647200000000001	1
809.3921734719934	0.38833333333333325	6.4577333333333335	1
808.4246245051322	0.3942333333333332	6.498	1
808.4246245051322	0.3942333333333332	6.603066666666667	1
808.2250419723872	0.3875999999999999	6.7590666666666674	1
808.2251790884925	0.3908333333333332	6.7590666666666674	1
808.2251790884925	0.3872666666666666	6.841733333333333	1
808.1315140073764	0.38393333333333324	6.389333333333334	1
808.0361683651231	0.39799999999999985	6.305866666666667	1
807.6499172045244	0.3815333333333332	6.747066666666666	1
807.6499172045244	0.39203333333333323	6.561333333333334	1
807.6500462289132	0.38946666666666657	6.571733333333333	1
807.3563054501672	0.38853333333333323	6.391866666666666	1
807.3563054501672	0.3897999999999999	6.2252	1
806.9719199688122	0.3879999999999999	6.7969333333333335	1
807.0122884738306	0.38616666666666655	6.709066666666667	1
806.3947639100028	0.38616666666666655	6.447066666666666	1
806.3947639100028	0.39126666666666654	6.447066666666666	1
806.0090991715598	0.38873333333333326	6.531466666666667	1
806.0083790910422	0.3825999999999999	6.8552	1
806.0083790910422	0.38883333333333325	6.921733333333332	1
806.0099657698349	0.3897999999999999	6.9204	1
804.9490713829447	0.38766666666666655	6.6852	1
804.8545559482906	0.3881999999999999	6.673733333333333	1
804.8545559482906	0.3921999999999999	6.599866666666667	1
804.8546461300919	0.38299999999999995	6.5152	1
804.854599992755	0.3823999999999999	6.491733333333333	1
804.854599992755	0.3896333333333332	6.334133333333333	1
804.5675862295916	0.3896333333333332	6.307866666666667	1
804.3760155259093	0.3854999999999999	6.633733333333333	1
804.3769403680867	0.3921333333333332	6.633733333333333	1
804.3769403680867	0.39913333333333323	6.7409333333333326	1
803.9904982243419	0.3843999999999999	6.287466666666667	1
803.9905531462534	0.3903333333333332	5.8544	1
803.9905531462534	0.3946999999999999	5.6601333333333335	1
803.7050341817879	0.3936333333333332	5.361199999999999	1
803.514681968486	0.3968333333333332	4.920266666666667	1
802.8452041741822	0.38896666666666657	3.1792	1
802.8452041741822	0.3871666666666666	2.6932	1
802.8455735421543	0.3854666666666665	2.742933333333333	1
802.841738502203	0.3854666666666665	2.5485333333333333	1
802.841738502203	0.3825333333333332	1.6090666666666664	1
802.841738502203	0.38859999999999995	1.6090666666666664	1
801.6023316092874	0.3896666666666666	1.332533333333333	1
801.6044512060282	0.3886333333333333	0.3730666666666666	1
801.6044512060282	0.39519999999999994	0.3606666666666665	1
801.4140415184892	0.3938999999999999	0.3565333333333332	1
801.4146561792033	0.3890999999999999	0.2847999999999998	1
801.4146561792033	0.39289999999999986	0.2647999999999999	1
801.2231280780337	0.38916666666666655	0.20106666666666684	1
801.2231112214878	0.3883999999999999	0.20040000000000016	1
801.1295430852375	0.39883333333333326	0.20026666666666681	1
801.1295430852375	0.39883333333333326	0.19960000000000017	1
800.8452298269176	0.39586666666666653	0.12213333333333343	1
800.7512318661172	0.38583333333333325	0.12213333333333343	1
800.7512318661172	0.3886333333333333	0.08000000000000007	1
800.3685813137052	0.3798666666666666	0.04013333333333337	1
800.3685112611215	0.3890333333333333	0.040000000000000036	1
