wavelength(nm)	flourescence PMT(V)	ti_saph Power (V)	Gain (V)
800.3707782750844	0.39076666666666654	0.040000000000000036	1
800.370743329407	0.3835999999999999	0.040000000000000036	1
800.370743329407	0.3904999999999999	0.040000000000000036	1
800.370743329407	0.3897333333333332	0.07146666666666673	1
801.1296708592705	0.39153333333333323	0.1550666666666668	1
801.1296708592705	0.3892666666666666	0.1984000000000002	1
801.129709600965	0.39506666666666657	0.1997333333333335	1
801.2232010286549	0.39506666666666657	0.20026666666666684	1
801.2232010286549	0.39473333333333327	0.20026666666666684	1
801.4600369370592	0.38873333333333326	0.20080000000000017	1
801.4600369370592	0.39779999999999993	0.24133333333333332	1
801.4600369370592	0.39543333333333325	0.2802666666666665	1
801.6060857707671	0.38716666666666655	0.34826666666666656	1
801.605149560562	0.38643333333333324	0.35999999999999993	1
801.605149560562	0.38903333333333323	0.36159999999999987	1
802.3684277137543	0.3877999999999999	1.343733333333333	1
802.5580061188508	0.39799999999999985	1.897333333333333	1
802.8437654355747	0.38883333333333325	2.4654666666666665	1
802.8437654355747	0.38573333333333326	2.5181333333333336	1
803.2271720591592	0.38573333333333326	3.8068	1
803.6099330445563	0.38376666666666653	3.9627999999999997	1
803.6099330445563	0.3868999999999999	3.9627999999999997	1
803.703594985823	0.38033333333333325	5.4934666666666665	1
803.991585727285	0.3832999999999999	5.700399999999999	1
803.991585727285	0.39476666666666654	5.9050666666666665	1
804.089203918904	0.3846999999999999	5.920533333333333	1
804.089203918904	0.3819333333333332	6.296	1
804.089203918904	0.39006666666666656	6.471866666666666	1
804.3761560144327	0.38866666666666655	6.5061333333333335	1
804.5649743740664	0.38753333333333323	6.399466666666667	1
804.5649743740664	0.39233333333333326	6.4985333333333335	1
804.8547307101516	0.39233333333333326	6.559066666666666	1
804.8538236702024	0.38696666666666657	6.522933333333333	1
804.8538236702024	0.3925666666666666	6.522933333333333	1
804.8548359752415	0.3871666666666666	6.505333333333333	1
805.239484168218	0.3893666666666666	6.572133333333333	1
805.239484168218	0.38833333333333325	6.682666666666666	1
806.0094635721689	0.3933999999999999	7.0612	1
806.0102365096403	0.38373333333333326	7.037733333333333	1
806.0102365096403	0.3920999999999999	6.872266666666667	1
806.4916329570124	0.39856666666666657	6.630133333333333	1
806.3989872450315	0.39016666666666655	6.578	1
806.8757648799749	0.38376666666666653	6.2783999999999995	1
806.8757648799749	0.38376666666666653	6.4848	1
807.264216173517	0.3899666666666666	6.867333333333333	1
807.3592212227476	0.37913333333333327	6.867333333333333	1
807.3592212227476	0.3883999999999999	6.609066666666667	1
807.3592575811675	0.3852666666666666	6.4148000000000005	1
807.7452038016712	0.3853999999999999	6.319866666666667	1
807.7452038016712	0.38299999999999995	6.808133333333333	1
808.133353963753	0.3911333333333333	6.720933333333334	1
808.1333838049152	0.3784999999999999	6.392799999999999	1
808.1333838049152	0.3884999999999999	6.179333333333334	1
808.1333695417514	0.3822333333333332	6.244133333333332	1
808.1333701882706	0.3944666666666666	6.2828	1
808.1333701882706	0.3944666666666666	6.333066666666667	1
808.2686764931163	0.3928999999999999	6.460266666666667	1
808.4277203669596	0.39179999999999987	6.460266666666667	1
808.4277203669596	0.39106666666666656	6.585066666666666	1
809.3922423201493	0.3872999999999999	6.6142666666666665	1
809.4867033515067	0.3865333333333333	6.647733333333333	1
809.4867033515067	0.39206666666666656	6.553333333333334	1
809.782515590969	0.3906666666666666	6.449200000000001	1
809.7825277913154	0.3801666666666666	6.438400000000001	1
809.7825277913154	0.3957999999999998	6.438800000000001	1
810.2651318870533	0.39653333333333324	6.279333333333333	1
810.6577859131698	0.3881333333333332	6.817599999999999	1
810.6577859131698	0.3881333333333332	6.853466666666667	1
810.6577813499184	0.3873999999999999	6.853466666666667	1
810.8636294991746	0.3714999999999999	6.840666666666667	1
810.8636294991746	0.3886666666666666	6.667866666666667	1
811.3409771061667	0.3908999999999999	6.5549333333333335	1
811.3412160227839	0.38656666666666656	6.6712	1
811.3412160227839	0.3828666666666665	6.573333333333333	1
811.5342400410776	0.38546666666666657	6.125466666666666	1
811.5333469011364	0.3868666666666666	6.1036	1
811.7819875958701	0.3970666666666665	6.135333333333333	1
811.7819875958701	0.3961333333333332	6.357600000000001	1
811.8264915655146	0.38543333333333324	6.2754666666666665	1
811.9252471767226	0.38543333333333324	6.2256	1
811.9252471767226	0.39536666666666653	6.326666666666667	1
811.9250361539608	0.37919999999999987	6.326666666666667	1
812.7081956176319	0.3824999999999999	6.355066666666668	1
812.7081956176319	0.38223333333333326	6.344266666666667	1
813.0548103144594	0.3775333333333332	6.653733333333333	1
813.0547882725789	0.3802333333333332	6.743466666666667	1
813.0547882725789	0.39203333333333323	6.645866666666666	1
813.0547723494456	0.3848333333333332	6.488533333333334	1
813.4907052425203	0.38143333333333324	6.293066666666667	1
813.4907052425203	0.3840333333333333	6.225466666666666	1
813.9807353516028	0.3878666666666666	6.28	1
813.9806984768798	0.3878666666666666	6.3622666666666685	1
813.9806984768798	0.3850666666666665	6.442533333333334	1
813.9804767824492	0.39356666666666656	6.442533333333334	1
814.7707163476431	0.37776666666666653	6.386266666666667	1
814.7707163476431	0.38406666666666656	6.462	1
814.7706657928311	0.39333333333333326	6.738666666666666	1
823.923106102931	0.39256666666666656	6.721466666666666	1
823.923106102931	0.3858666666666666	6.681866666666666	1
815.1182885206766	0.3863666666666666	6.648666666666667	1
815.2642057955458	0.39229999999999987	6.6000000000000005	1
815.2642057955458	0.38409999999999994	6.5552	1
815.2642801481653	0.3915333333333333	6.497333333333334	1
815.3158394860393	0.38556666666666656	6.400800000000001	1
815.3158394860393	0.38556666666666656	6.368666666666666	1
815.4169298995026	0.38389999999999985	6.368666666666666	1
816.2488697240406	0.3872999999999999	6.4344	1
816.2488697240406	0.3940333333333333	6.263466666666666	1
816.8447915277231	0.40363333333333323	6.421466666666666	1
816.8451159033997	0.39359999999999984	6.6000000000000005	1
816.8451159033997	0.3843999999999999	6.6000000000000005	1
817.3355987986052	0.39583333333333326	6.526	1
817.636072155149	0.39886666666666654	6.5832	1
817.636072155149	0.3848333333333332	6.5924000000000005	1
817.6341294928202	0.38093333333333323	6.524533333333334	1
817.6359261296082	0.39149999999999996	6.459066666666667	1
817.6359261296082	0.39149999999999996	6.521066666666667	1
818.6259947650536	0.38806666666666656	6.521066666666667	1
818.6248894998945	0.3883666666666666	6.189733333333334	1
818.6262067571821	0.38389999999999985	6.125600000000001	1
818.6262067571821	0.3944666666666666	6.126533333333334	1
818.6262067571821	0.3744999999999999	6.314666666666667	1
818.9800203943282	0.39399999999999985	6.6432	1
818.9800203943282	0.3909666666666665	6.5309333333333335	1
819.8221201578784	0.39236666666666653	6.781733333333333	1
819.8220011643291	0.37569999999999987	6.7089333333333325	1
819.8220011643291	0.38889999999999986	6.704533333333332	1
820.575720973791	0.38889999999999986	6.675466666666666	1
820.6233578084954	0.3909666666666665	6.617466666666666	1
820.6233578084954	0.3888666666666666	6.617466666666666	1
821.0199681944392	0.3926999999999999	6.5964	1
821.022423971496	0.38543333333333324	6.883199999999999	1
821.022423971496	0.39486666666666653	6.921866666666666	1
821.1212383466438	0.3857999999999999	6.981999999999998	1
821.7733680432652	0.3867666666666666	7.025333333333333	1
821.7733680432652	0.39629999999999993	7.1466666666666665	1
821.8200495338085	0.38953333333333323	7.070666666666666	1
822.1229329603582	0.39256666666666656	7.011866666666666	1
822.1229329603582	0.3865999999999999	7.043066666666667	1
822.2202878999364	0.3865999999999999	7.1335999999999995	1
822.3179204509513	0.3932999999999999	7.136933333333333	1
822.3179204509513	0.3856333333333332	7.136933333333333	1
822.2691103261143	0.3843666666666666	7.141199999999999	1
822.2743860935743	0.3870333333333333	7.1466666666666665	1
822.2743860935743	0.38649999999999984	7.114133333333332	1
822.7226447596794	0.3875999999999999	7.009200000000001	1
822.7254029771826	0.37633333333333324	7.2352	1
823.5293487141209	0.39079999999999987	7.194533333333332	1
823.5293487141209	0.3853666666666666	7.328533333333334	1
823.7247233569902	0.38696666666666657	7.335466666666666	1
824.0300357721757	0.3898999999999999	7.2791999999999994	1
824.0300357721757	0.3929999999999999	7.504266666666666	1
824.0283358562574	0.3929999999999999	7.347333333333332	1
824.3863846068082	0.38943333333333324	7.347333333333332	1
824.3863846068082	0.3832666666666666	7.070666666666666	1
824.3863412561291	0.3963333333333332	7.070133333333334	1
824.7907121250246	0.39309999999999995	6.973999999999999	1
824.7907121250246	0.3958999999999999	7.182133333333333	1
824.8402013866452	0.39016666666666655	7.302666666666666	1
825.2976500938709	0.3900999999999999	7.2816	1
825.2976500938709	0.3931666666666666	7.326133333333334	1
825.5985818555889	0.3911999999999999	7.265466666666665	1
825.6998762073133	0.4012333333333333	7.201733333333333	1
825.6998762073133	0.3933999999999999	7.070666666666666	1
825.7995754978975	0.3933999999999999	7.234533333333332	1
826.1037302954462	0.39629999999999993	7.234533333333332	1
826.1037686739966	0.3939666666666666	7.244399999999999	1
826.1037686739966	0.3896333333333332	7.1892000000000005	1
826.1063520696796	0.3942333333333332	7.209066666666666	1
826.1063520696796	0.4061333333333332	7.249066666666666	1
826.1063520696796	0.38976666666666654	7.448266666666665	1
826.9146812994197	0.39333333333333326	7.3945333333333325	1
827.3197841936752	0.39819999999999994	7.2768	1
827.3197841936752	0.38766666666666655	7.400933333333333	1
827.6887220447543	0.39373333333333327	7.384133333333333	1
827.8292469124339	0.39373333333333327	7.346666666666667	1
827.8292469124339	0.39843333333333325	7.309066666666667	1
828.135838797253	0.3847333333333332	7.309066666666667	1
828.2379526961962	0.38576666666666654	7.367066666666666	1
828.2379526961962	0.3921999999999999	7.371066666666666	1
828.6462965304675	0.39109999999999984	7.2871999999999995	1
828.6415744592848	0.3886333333333332	7.269066666666666	1
828.6415744592848	0.38356666666666656	7.252399999999998	1
828.7470402815173	0.3957999999999999	7.317333333333333	1
828.7471321651881	0.38976666666666654	7.388133333333332	1
829.4612024289792	0.3972999999999999	7.404933333333332	1
829.4612024289792	0.4029999999999999	7.2412	1
829.5603460227682	0.4029999999999999	7.240666666666666	1
829.8681746194324	0.3900999999999999	7.390666666666667	1
829.8681746194324	0.3927333333333332	7.390666666666667	1
829.9710075906154	0.39359999999999995	7.680266666666666	1
829.9711905995377	0.3947666666666666	7.516133333333334	1
829.9711905995377	0.39139999999999986	7.238266666666667	1
830.381081046824	0.3918666666666666	7.179733333333334	1
830.3839266352925	0.3822999999999999	7.652	1
830.3839266352925	0.38943333333333324	7.624933333333334	1
830.5830427367929	0.39233333333333326	7.403866666666667	1
830.9858385622184	0.3826666666666665	7.4509333333333325	1
830.9858385622184	0.3877999999999999	7.514933333333332	1
831.1990234198022	0.3950999999999999	7.684799999999998	1
831.7120391824975	0.3950999999999999	7.795466666666668	1
831.7120391824975	0.3916333333333332	7.757066666666666	1
831.712105674428	0.3861999999999999	7.757066666666666	1
831.7120709128116	0.38193333333333324	7.582533333333332	1
831.7120709128116	0.38559999999999994	7.5296	1
832.122657504955	0.3907666666666666	7.15	1
832.6340458413996	0.3915999999999999	7.1304	1
832.6340458413996	0.38796666666666657	7.270933333333334	1
833.0500999482733	0.3993666666666666	7.345066666666665	1
833.0501330280098	0.40766666666666657	7.411066666666666	1
833.3607723497967	0.39886666666666654	7.496533333333334	1
833.3607723497967	0.3886999999999999	7.576799999999999	1
833.40943599288	0.3886999999999999	7.546399999999998	1
833.8725146141726	0.4025999999999999	7.457199999999999	1
833.8725146141726	0.39836666666666654	7.457199999999999	1
833.9759727816547	0.3964999999999999	7.5346666666666655	1
834.2324548263368	0.38973333333333327	7.58	1
834.2324548263368	0.39816666666666656	7.3508	1
834.3382551485255	0.39766666666666656	7.3824	1
834.8044692620144	0.3994666666666665	7.311466666666665	1
834.8044692620144	0.40083333333333326	7.415733333333335	1
835.0616050049877	0.4051666666666665	7.370133333333333	1
835.4240919694014	0.4064333333333332	7.386266666666667	1
835.4240919694014	0.4153999999999999	7.332533333333334	1
835.4241977423709	0.4125666666666666	7.3488	1
844.0628586218442	0.4125666666666666	7.480133333333333	1
844.0628586218442	0.4294333333333333	7.381733333333333	1
836.0467084473495	0.4339333333333333	7.381733333333333	1
836.3593680221965	0.4397666666666666	7.4204	1
836.3593680221965	0.46069999999999983	7.580933333333332	1
836.8229419072533	0.4928666666666665	7.689733333333334	1
836.8268726112983	0.4895333333333332	7.666933333333333	1
836.8268726112983	0.4831666666666665	7.494533333333332	1
837.2422018603158	0.5057999999999998	7.249199999999999	1
837.3960124275637	0.5095666666666665	7.126	1
837.3960124275637	0.5314333333333332	7.094399999999999	1
837.394833086663	0.5140999999999999	7.127066666666668	1
837.6109770805404	0.5140999999999999	7.274799999999999	1
837.6593631708126	0.5419666666666666	7.433599999999999	1
837.6593631708126	0.5751999999999999	7.433599999999999	1
838.1788854981082	0.5849333333333332	7.427599999999999	1
838.1795468302021	0.5921333333333333	7.435466666666668	1
838.1795468302021	0.6238666666666666	7.559866666666665	1
838.3369549778082	0.6459666666666666	7.515466666666666	1
838.6986086614869	0.6541999999999999	7.396533333333332	1
838.6986086614869	0.6902	7.353466666666667	1
839.116113701085	0.7129333333333332	7.3936	1
839.1199101444793	0.7417999999999999	7.502799999999999	1
839.1199101444793	0.7564999999999998	7.536933333333333	1
839.4323108496733	0.7564999999999998	7.4632000000000005	1
839.4324156303608	0.7853333333333332	7.460933333333332	1
839.4324156303608	0.7884333333333332	7.460933333333332	1
839.9682034698077	0.8006	7.5272	1
840.3750649447775	0.8775333333333333	7.417066666666666	1
840.3750649447775	0.8982333333333332	7.419733333333332	1
840.6910438660353	1.0012	7.530533333333333	1
840.6872290948775	1.04	7.5904	1
840.6872290948775	1.0604666666666667	7.4288	1
841.0018255700031	1.1269333333333333	7.4358666666666675	1
840.9531320544759	1.1064999999999998	7.2846666666666655	1
840.9531320544759	1.1053999999999997	7.283333333333333	1
841.2679971576124	1.1053999999999997	7.047733333333334	1
841.2680565792497	1.1541333333333332	7.131200000000001	1
841.2680565792497	1.1794	7.131200000000001	1
841.422155479281	1.2013333333333334	7.099733333333334	1
841.5853057725883	1.2597333333333331	7.005600000000001	1
841.5853057725883	1.3087	7.077866666666667	1
841.8429129823442	1.3887666666666667	7.247466666666666	1
842.163152085637	1.466233333333333	6.9807999999999995	1
842.6301241227432	1.5655333333333332	7.114666666666666	1
842.6301241227432	1.6656	7.106933333333333	1
843.1103298092823	1.7281666666666669	7.042666666666667	1
843.1073320985566	1.9088666666666665	7.129466666666666	1
843.1073320985566	1.9088666666666665	7.1572	1
843.2135897468326	1.9446666666666665	7.3048	1
843.5341838633385	2.168266666666667	7.3529333333333335	0.40000000000000013
843.5328005503952	1.6569333333333334	7.539733333333333	1
844.3794522215852	1.152033333333333	7.623199999999999	1
844.3794522215852	1.8931000000000002	6.5432	1
844.5913512429221	1.9293999999999998	4.6677333333333335	1
844.697503061382	1.8957000000000002	4.122000000000001	1
844.697503061382	1.7504	3.5426666666666664	1
844.803645936457	1.7504	3.265866666666667	1
844.9094486952471	1.6704	2.743333333333333	1
844.9094486952471	1.5333333333333334	2.743333333333333	1
843.1073424092814	1.9670333333333334	7.359733333333334	1
842.5389212307081	1.8605333333333332	7.338533333333332	1
842.5389212307081	1.8605333333333332	7.188399999999999	1
842.3722363370213	1.6930999999999998	7.0869333333333335	1
842.1105511109992	1.6006333333333334	7.0869333333333335	1
842.1105511109992	1.4774333333333332	6.879866666666667	1
841.8438170064794	1.3710666666666667	6.948533333333333	1
841.528531062451	1.3493333333333333	7.004266666666667	1
841.528531062451	1.2692333333333332	6.853999999999999	1
841.3205724616178	1.2177333333333331	6.971733333333332	1
841.3205724616178	1.1794	7.087600000000001	1
841.3205724616178	1.1957333333333333	7.241599999999998	1
841.3180144359064	1.1736333333333333	7.491999999999998	1
840.8988739280124	1.1150999999999998	7.349066666666666	1
840.8988739280124	1.1150999999999998	7.2422666666666675	1
840.8986783789646	1.0623333333333334	7.293066666666667	1
840.6910339095756	1.0479999999999998	7.293066666666667	1
840.3767966422996	1.0575	7.401333333333332	1
840.3767966422996	0.9811	7.370133333333333	1
840.0608699093547	0.9159999999999998	7.406933333333333	1
839.43247949672	0.8801666666666665	7.476266666666667	1
839.43247949672	0.7936	7.584799999999999	1
839.4810514793429	0.7931333333333332	7.528666666666666	1
839.1166924067169	0.7857999999999998	7.536933333333333	1
839.1166924067169	0.7520999999999999	7.585866666666666	1
839.1167564592475	0.7422333333333332	7.529466666666665	1
838.698673046414	0.7422333333333332	7.633066666666665	1
838.698673046414	0.6973	7.6294666666666675	1
838.178903620394	0.6464333333333332	7.6294666666666675	1
838.1805903518484	0.6313999999999999	7.702533333333334	1
838.1805903518484	0.6365333333333332	7.7016	1
837.7636223403415	0.5812666666666666	7.268533333333331	1
837.7637396654266	0.5674333333333333	7.261866666666666	1
837.7637396654266	0.5533666666666666	7.228933333333333	1
837.4389582557683	0.5230333333333332	7.3668	1
837.3348298832199	0.5289666666666666	7.405999999999999	1
837.3348298832199	0.5207333333333333	7.460799999999999	1
837.1372963900053	0.5106999999999998	7.5469333333333335	1
836.8238078771592	0.5106999999999998	7.588133333333332	1
836.8238078771592	0.5021666666666665	7.722266666666668	1
836.823845210003	0.4887666666666666	7.722266666666668	1
836.5109173800748	0.4819999999999999	7.704399999999999	1
836.5109173800748	0.4787333333333332	7.611199999999999	1
836.0972571431435	0.45913333333333317	7.490533333333333	1
836.0968957006617	0.43993333333333323	7.252533333333334	1
836.0968957006617	0.4477333333333332	7.234399999999999	1
835.7346423043398	0.4299999999999999	7.255066666666667	1
835.4240908424628	0.4136999999999999	7.233333333333333	1
835.4240908424628	0.4191666666666666	7.142933333333334	1
835.423992598821	0.4115999999999999	7.2432	1
835.2682003490052	0.4115999999999999	7.507999999999999	1
835.2682003490052	0.4000333333333332	7.576799999999999	1
834.6019267092393	0.39519999999999994	7.576799999999999	1
834.3372516048026	0.4027333333333332	7.441066666666666	1
834.3372516048026	0.40243333333333325	7.428533333333331	1
834.1926713034677	0.4062999999999999	7.271333333333332	1
833.876998643167	0.39986666666666654	7.234399999999999	1
833.9760189125464	0.3888666666666666	7.3252	1
833.9760189125464	0.3857666666666666	7.468799999999998	1
833.4062437819894	0.3918666666666666	7.501333333333332	1
833.3580820205606	0.39166666666666655	7.559733333333332	1
833.3580820205606	0.39389999999999986	7.5922666666666645	1
833.0510983775514	0.39389999999999986	7.460666666666666	1
833.0501857056655	0.38069999999999987	7.467466666666666	1
833.0501857056655	0.3977333333333332	7.467466666666666	1
833.0501857056655	0.3984666666666666	7.419866666666667	1
832.1236573624969	0.39906666666666657	7.406933333333331	1
832.1236573624969	0.38179999999999986	7.248799999999999	1
832.1247292625748	0.3937333333333332	7.256666666666667	1
831.7111083699211	0.3967999999999999	7.5510666666666655	1
831.7111083699211	0.38939999999999986	7.584266666666665	1
831.7111030044399	0.39179999999999987	7.562399999999999	1
831.2010112219549	0.39626666666666654	7.563999999999999	1
831.2010112219549	0.39303333333333323	7.607333333333333	1
830.8886751424516	0.3852999999999999	7.654666666666666	1
830.583420970695	0.3852999999999999	7.5477333333333325	1
830.583420970695	0.3962999999999999	7.5477333333333325	1
830.3794733463998	0.38916666666666655	7.710133333333333	1
829.971298939415	0.3903999999999999	7.845466666666665	1
829.971298939415	0.3907999999999998	7.418399999999998	1
829.8672182889358	0.3816666666666666	7.460666666666666	1
829.868856980182	0.3883666666666665	7.627199999999999	1
829.4612140828357	0.3873333333333332	7.677466666666666	1
829.4612140828357	0.3867333333333332	7.343333333333334	1
829.4611777415068	0.3961333333333332	7.141866666666668	1
829.4606693026525	0.38419999999999993	7.1092	1
829.4606693026525	0.38626666666666654	7.312533333333334	1
828.6460086818299	0.38626666666666654	7.377866666666666	1
828.6440916429069	0.3991333333333333	7.377866666666666	1
828.6440916429069	0.3854999999999999	7.414	1
828.6440530498074	0.38733333333333325	7.475999999999999	1
828.3351625782442	0.3972999999999999	7.3814666666666655	1
828.3351625782442	0.3865999999999999	7.277333333333333	1
828.1357766349795	0.3922666666666666	7.356133333333334	1
827.7282644797461	0.39086666666666653	7.126133333333334	1
827.7282644797461	0.3926333333333333	7.0857333333333345	1
827.7282552422116	0.38843333333333324	7.1828	1
827.3230190616921	0.3855333333333333	7.3275999999999994	1
827.3230190616921	0.3855333333333333	7.348533333333333	1
827.3230190616921	0.3877333333333332	7.378266666666665	1
826.8143570732973	0.3842666666666666	7.378266666666665	1
826.8143570732973	0.3797333333333332	7.597599999999999	1
821.4668542887432	0.3827333333333332	7.369066666666664	1
826.1009024981901	0.39429999999999993	7.408666666666665	1
826.1009105818115	0.3947999999999999	7.413333333333333	1
826.1009105818115	0.3911333333333332	7.3632	1
825.7008668333606	0.38766666666666655	7.168533333333334	1
825.5974139114873	0.39253333333333323	7.177466666666666	1
825.5974139114873	0.3903333333333332	7.094133333333333	1
825.2938561153151	0.3863666666666666	7.2616000000000005	1
824.787739730776	0.3863666666666666	7.111466666666665	1
824.787739730776	0.3943333333333332	7.230266666666666	1
824.7906121164468	0.3877666666666666	7.230266666666666	1
824.4874425647135	0.3947999999999999	7.2165333333333335	1
824.4874425647135	0.3899333333333332	7.218666666666667	1
824.3863261031504	0.3945999999999999	7.234266666666666	1
824.0310103916689	0.38683333333333325	7.355066666666665	1
824.0310103916689	0.38576666666666654	7.542799999999999	1
824.0319770703801	0.38446666666666657	7.5098666666666665	1
823.4789749856104	0.3915999999999999	7.3128	1
823.479087149411	0.40113333333333323	6.954666666666665	1
823.479087149411	0.38376666666666653	6.8936	1
822.476630573115	0.38679999999999987	7.1049333333333315	1
822.3212429597912	0.38679999999999987	6.795866666666666	1
822.3212429597912	0.39149999999999985	6.795866666666666	1
822.2266292259458	0.3831333333333332	6.729066666666666	1
822.222572254873	0.39203333333333323	6.837999999999999	1
822.222572254873	0.39109999999999995	6.9372	1
821.9184324641183	0.3911333333333333	6.9542666666666655	1
821.8215419977105	0.40143333333333314	7.088666666666665	1
821.8215419977105	0.4012999999999999	6.970533333333333	1
821.219644553396	0.38306666666666656	6.957599999999999	1
821.1164722553166	0.3940999999999999	6.752666666666666	1
821.1164722553166	0.3861333333333332	6.758533333333333	1
821.0247143086752	0.3861333333333332	6.809466666666666	1
820.9217148307137	0.3917666666666666	6.6892	1
820.9217148307137	0.38856666666666656	6.6892	1
820.6194947123098	0.3859999999999999	6.726666666666667	1
820.5212473934132	0.39066666666666655	6.768933333333333	1
820.5212473934132	0.3880999999999999	6.910399999999999	1
819.8229649231599	0.3944999999999999	6.726666666666666	1
819.6350315908783	0.38293333333333324	6.717866666666667	1
819.6350315908783	0.37826666666666653	6.653733333333333	1
818.9245651215349	0.39266666666666655	6.421066666666667	1
818.7261996158525	0.3791999999999999	6.5014666666666665	1
818.6279463984581	0.37846666666666656	6.631866666666666	1
818.6279463984581	0.37846666666666656	6.4661333333333335	1
818.5814387849591	0.38449999999999995	6.467600000000001	1
818.3243333788366	0.3919666666666666	6.467600000000001	1
818.3243333788366	0.38933333333333325	6.556666666666667	1
817.7343849319809	0.3875999999999999	6.4042666666666666	1
817.6366712379902	0.39443333333333325	6.312799999999999	1
817.6366712379902	0.3881999999999999	6.500133333333333	1
817.4357577694783	0.39206666666666656	6.487066666666666	1
816.8431750472195	0.38609999999999994	6.523733333333333	1
816.8431750472195	0.3920999999999999	6.641066666666667	1
816.8425923769892	0.3965999999999999	6.6773333333333325	1
816.5449020408557	0.3823333333333332	6.6000000000000005	1
816.5449020408557	0.38056666666666655	6.438533333333335	1
815.5583628884362	0.38056666666666655	6.334666666666667	1
815.2590375704585	0.3873333333333332	6.334666666666667	1
815.2590375704585	0.39486666666666653	6.398933333333335	1
815.2599771538202	0.3915999999999999	6.399333333333335	1
815.1173639264711	0.38806666666666656	6.3921333333333346	1
815.1173639264711	0.3911999999999999	6.410533333333334	1
815.1172913110864	0.3948999999999999	6.4824	1
815.1173273445426	0.3845999999999999	6.631733333333333	1
815.1173273445426	0.3932999999999999	6.6788	1
814.7681192732612	0.38923333333333326	6.68	1
814.2347974309192	0.3872999999999999	6.4013333333333335	1
814.2347974309192	0.3851333333333332	6.0568	1
813.9817229486695	0.3851333333333332	6.281599999999999	1
813.9827977191377	0.38796666666666657	6.281599999999999	1
813.9827977191377	0.3878333333333332	6.28	1
813.9827903194479	0.38016666666666654	6.348400000000002	1
813.1007819126052	0.39026666666666654	6.202933333333333	1
813.0984436485386	0.3928333333333332	6.3184	1
813.0984436485386	0.3831333333333332	6.3482666666666665	1
813.09954693785	0.38446666666666657	6.3550666666666675	1
812.9591514171409	0.39856666666666657	6.405866666666667	1
812.9591514171409	0.3816666666666666	6.3991999999999996	1
812.7059990541732	0.3782999999999999	6.480266666666666	1
811.8286646755698	0.38896666666666657	6.521466666666667	1
811.8286646755698	0.38896666666666657	6.5312	1
811.8289688023192	0.38693333333333324	6.5312	1
811.8288931812936	0.38579999999999987	6.534933333333333	1
811.8288931812936	0.3994666666666666	6.496133333333334	1
811.5356198132741	0.39693333333333325	6.284	1
811.43494670743	0.3994999999999999	6.2188	1
811.43494670743	0.3975999999999999	6.487733333333333	1
811.43265555405	0.39649999999999985	6.5436	1
811.0450446878141	0.3880999999999999	6.701866666666667	1
811.0450446878141	0.39099999999999996	6.404000000000001	1
810.6577106671492	0.38746666666666657	6.662133333333333	1
810.657704486593	0.3843666666666666	6.714666666666666	1
810.657704486593	0.3843666666666666	6.716266666666666	1
810.2654115292025	0.3924333333333332	6.329866666666667	1
809.7825465765667	0.3807666666666666	6.329866666666667	1
809.7825465765667	0.38623333333333326	6.493333333333333	1
809.777912921784	0.38643333333333324	6.467733333333333	1
809.3912695109685	0.38476666666666653	6.378666666666668	1
809.3912695109685	0.3855999999999999	6.273999999999999	1
809.3928748160189	0.38416666666666655	6.229733333333334	1
808.4229288823598	0.3918666666666666	6.148000000000001	1
808.4229288823598	0.3886333333333332	6.461333333333334	1
808.1333155352229	0.38889999999999986	6.401733333333333	1
808.1333169455535	0.38396666666666657	6.3176000000000005	1
808.1333169455535	0.38396666666666657	6.28	1
808.1333232074437	0.3914666666666666	6.231199999999999	1
808.1323352327639	0.3968333333333332	6.231199999999999	1
807.6517563472422	0.39663333333333317	6.337866666666667	1
807.6517563472422	0.3946333333333332	6.558800000000001	1
807.3583084920856	0.3919999999999999	6.0844	1
807.2631588475092	0.3870999999999999	6.185599999999999	1
807.2631588475092	0.3906666666666666	6.725466666666666	1
806.8767051968307	0.3886333333333333	6.28	1
806.8767051968307	0.40236666666666654	6.335333333333333	1
806.8767051968307	0.3909666666666665	6.797866666666667	1
806.0092755219848	0.39226666666666654	6.8566666666666665	1
806.0101113824345	0.39226666666666654	6.9288	1
806.0101113824345	0.3977333333333332	6.9288	1
805.2400525919721	0.3846333333333332	6.980533333333333	1
804.9501648578754	0.39069999999999994	6.685466666666667	1
804.9501648578754	0.3913666666666666	6.667333333333334	1
804.8555643853604	0.3867666666666666	6.622133333333334	1
804.8555215537187	0.3854999999999999	6.602	1
804.8555215537187	0.38329999999999986	6.6012	1
804.8569762983882	0.3903999999999999	6.599200000000001	1
804.4704406057347	0.3853999999999999	6.3027999999999995	1
804.4704406057347	0.38626666666666654	6.546399999999999	1
804.3760212942567	0.3888666666666666	6.5974666666666675	1
804.3774368189786	0.3888666666666666	6.626933333333333	1
804.3774368189786	0.3951666666666665	6.306933333333333	1
803.9934776522837	0.3972333333333332	6.306933333333333	1
803.7058906864675	0.38943333333333324	5.937733333333333	1
803.7058906864675	0.3897333333333332	5.682666666666666	1
803.6083576462933	0.3898999999999999	5.502266666666666	1
803.1320565720233	0.38006666666666655	5.184533333333333	1
803.1329979222776	0.3846333333333332	3.6871999999999994	1
803.1329979222776	0.3934666666666665	3.4516	1
802.8437428386924	0.38616666666666655	2.599733333333333	1
802.3683079192882	0.38876666666666654	2.210933333333333	1
802.3683079192882	0.3796999999999999	1.3145333333333329	1
801.6059987735744	0.3796999999999999	0.4743999999999999	1
801.6060783859042	0.3912999999999999	0.3609333333333332	1
801.6060783859042	0.39206666666666656	0.3609333333333332	1
801.4141530795512	0.38383333333333325	0.3590666666666666	1
801.414051568326	0.3873333333333332	0.29119999999999985	1
801.414051568326	0.3960333333333332	0.2745333333333332	1
801.2248253303319	0.3919666666666666	0.2001333333333335	1
801.1294415668762	0.39473333333333327	0.19666666666666685	1
801.1294415668762	0.38856666666666656	0.19626666666666684	1
801.1294766053787	0.3874999999999999	0.19906666666666686	1
800.75368180309	0.3974666666666666	0.12626666666666678	1
800.75368180309	0.3914666666666666	0.10920000000000009	1
800.371161659099	0.3914666666666666	0.040000000000000036	1
800.3693788024405	0.38179999999999986	0.040000000000000036	1
800.3693788024405	0.3915999999999999	0.040000000000000036	1
800.02841409395	0.3895999999999999	0.040000000000000036	1
