wavelength(nm)	flourescence PMT(V)	ti_saph Power (V)	Gain (V)
800.3703473084829	0.3810333333333332	0.040000000000000036	1
800.3703473084829	0.3810333333333332	0.040000000000000036	1
800.3701550946463	0.39156666666666656	0.040000000000000036	1
800.3701550946463	0.37906666666666655	0.040000000000000036	1
800.8466763786166	0.38876666666666654	0.04613333333333337	1
800.8466763786166	0.38493333333333324	0.10826666666666675	1
801.1311995757872	0.39306666666666656	0.19586666666666683	1
801.1311995757872	0.3934666666666665	0.19826666666666684	1
801.2251629613893	0.37373333333333325	0.2005333333333335	1
801.2251629613893	0.38673333333333326	0.20040000000000016	1
801.4176428727573	0.3803999999999999	0.27666666666666645	1
801.4177962422059	0.3744999999999999	0.2801333333333331	1
801.4177962422059	0.3850999999999999	0.30373333333333313	1
801.606624360654	0.3850999999999999	0.3601333333333332	1
801.606624360654	0.39193333333333324	0.35999999999999993	1
801.606624360654	0.39253333333333323	0.35999999999999993	1
801.606624360654	0.3974666666666666	1.364533333333333	1
802.8442957950249	0.3916333333333332	1.7774666666666663	1
802.8442957950249	0.37406666666666655	2.372	1
802.8442957950249	0.3951333333333332	2.412933333333333	1
802.8442957950249	0.37759999999999994	2.7628	1
802.8442957950249	0.3979999999999999	3.680799999999999	1
802.8442957950249	0.3843666666666666	4.686933333333333	1
803.3504520031755	0.3943333333333332	5.434933333333333	1
803.9921903508989	0.38639999999999985	5.858666666666666	1
803.9921903508989	0.38529999999999986	5.879866666666667	1
803.9921903508989	0.38529999999999986	6.089066666666666	1
803.9921903508989	0.38369999999999993	6.411600000000002	1
804.37667588549	0.38006666666666655	6.411600000000002	1
804.37667588549	0.38266666666666654	6.4328	1
804.7589388018362	0.4051999999999999	6.4352	1
804.7589388018362	0.3845999999999999	6.371200000000001	1
804.8578775611354	0.3916333333333333	6.391333333333335	1
804.8578775611354	0.3927333333333332	6.370533333333334	1
804.8578618405888	0.3894333333333333	6.366133333333336	1
804.9506785333538	0.4000999999999999	6.4412	1
804.9506785333538	0.38649999999999984	6.5726666666666675	1
806.0125128800637	0.3999666666666666	6.884666666666665	1
806.0125128800637	0.3999666666666666	6.92	1
806.0115903596543	0.3883666666666665	6.876666666666667	1
806.0115903596543	0.3926333333333332	6.876666666666667	1
806.491222147681	0.3906333333333332	6.801333333333334	1
806.491222147681	0.3834999999999999	6.574933333333333	1
806.877983321093	0.39079999999999987	6.59	1
806.877983321093	0.3886999999999999	6.273066666666666	1
806.8780780522125	0.38893333333333324	5.986133333333333	1
807.222892255477	0.38346666666666657	6.564533333333333	1
807.222892255477	0.3855999999999999	6.378533333333333	1
807.6523481862425	0.39399999999999985	6.3112	1
807.6523481862425	0.3926333333333332	6.2274666666666665	1
807.6524364392046	0.3926333333333332	6.190133333333333	1
807.6524364392046	0.3871333333333332	6.5228	1
808.0369000843878	0.3816666666666666	6.5228	1
808.0369000843878	0.38319999999999993	6.7114666666666665	1
808.1320971622474	0.39053333333333323	6.497466666666668	1
808.1320971622474	0.38866666666666655	6.1036	1
808.2264411419584	0.3862333333333332	6.107200000000001	1
808.2264411419584	0.3933999999999999	6.383066666666667	1
808.4238334079604	0.3931999999999999	6.3572	1
808.520352961144	0.38113333333333327	6.202	1
808.520352961144	0.3938999999999999	6.425066666666667	1
809.3934247324753	0.38669999999999993	6.475599999999999	1
809.3934247324753	0.38669999999999993	6.455733333333334	1
809.6869989529913	0.39803333333333324	6.365066666666668	1
809.6869989529913	0.38546666666666657	6.365066666666668	1
809.7824304380246	0.37996666666666656	6.3576000000000015	1
809.7824304380246	0.3882666666666666	6.356266666666667	1
810.1729337807434	0.3895333333333332	6.378266666666667	1
810.1729337807434	0.3846666666666666	6.643733333333333	1
810.6572674960898	0.3966333333333333	6.708266666666667	1
810.6572674960898	0.38333333333333325	6.6472	1
810.6559051195763	0.39623333333333327	6.4421333333333335	1
811.3421877292944	0.38683333333333325	6.1316	1
811.3421877292944	0.3939666666666666	6.485733333333333	1
811.4368474057949	0.3939666666666666	6.5016	1
811.4368474057949	0.3916333333333333	6.204000000000001	1
811.5311015396397	0.3897333333333332	6.204000000000001	1
811.5311015396397	0.39066666666666655	6.068933333333334	1
811.8286069033619	0.3827333333333332	6.229866666666667	1
811.8286069033619	0.38679999999999987	6.362266666666667	1
811.8286354913672	0.37679999999999986	6.3304	1
811.8286354913672	0.39303333333333323	6.334933333333334	1
811.9256908958505	0.3818666666666666	6.340133333333333	1
811.9256908958505	0.39373333333333327	6.3441333333333345	1
812.6623592298719	0.39953333333333324	6.101999999999999	1
813.1004465405844	0.3924666666666666	6.142266666666666	1
813.1004465405844	0.3830999999999999	6.082533333333332	1
813.0995881733888	0.3830999999999999	6.1216	1
813.0995881733888	0.3876333333333332	6.1216	1
813.0990415712099	0.3918666666666666	6.168933333333333	1
813.0990415712099	0.38076666666666653	6.141333333333334	1
813.7894183461849	0.3888666666666666	6.1756	1
813.7894183461849	0.3895999999999999	6.2467999999999995	1
813.7894183461849	0.38356666666666656	6.244266666666666	1
813.7894183461849	0.3986999999999999	6.134533333333334	1
814.2336121180919	0.39189999999999986	5.941866666666667	1
814.7705858107818	0.3745999999999999	6.1596	1
814.7705858107818	0.3828999999999999	6.5836000000000015	1
814.7705273535523	0.3828999999999999	6.596666666666668	1
814.7705273535523	0.38196666666666657	6.527599999999999	1
815.1170525844416	0.38756666666666656	6.527599999999999	1
815.1170525844416	0.3904666666666665	6.5132	1
815.2641027599816	0.3912999999999999	6.542	1
815.2641027599816	0.3811999999999999	6.529466666666665	1
815.2598995340611	0.3810999999999999	6.484933333333333	1
815.2598995340611	0.3969666666666666	6.458799999999999	1
815.4138924589134	0.38533333333333325	6.420933333333334	1
815.4138924589134	0.3923666666666666	6.3344000000000005	1
816.2503027460921	0.3941999999999999	6.182133333333333	1
816.5457097692009	0.3868666666666666	6.326933333333335	1
816.5457097692009	0.3868666666666666	6.381466666666667	1
816.8440147067112	0.3907333333333332	6.467333333333334	1
816.8440147067112	0.38753333333333323	6.467333333333334	1
817.3385747066931	0.3882333333333332	6.399866666666667	1
817.3385747066931	0.3914666666666666	6.365466666666668	1
817.6366813476878	0.38696666666666657	6.451066666666667	1
817.6366813476878	0.3824333333333332	6.485066666666666	1
817.7364823768927	0.38833333333333325	6.4504	1
817.7364823768927	0.3832666666666666	6.345066666666668	1
818.3334854886905	0.38093333333333323	6.2568	1
818.3334854886905	0.39256666666666656	6.201066666666667	1
818.6287310218203	0.39336666666666653	6.167866666666666	1
818.782149840723	0.39336666666666653	6.1436	1
818.782149840723	0.38593333333333324	6.417200000000001	1
818.7821809921263	0.39553333333333324	6.417200000000001	1
818.7821809921263	0.3881333333333332	6.2944	1
819.7253460902803	0.3921999999999999	6.398666666666667	1
819.7253460902803	0.38146666666666657	6.5308	1
820.6236035697767	0.3885999999999999	6.709733333333332	1
820.6236035697767	0.38516666666666655	6.7248	1
820.6237135400228	0.3918666666666666	6.6816	1
820.6237135400228	0.39906666666666657	6.617466666666667	1
820.9239504967144	0.3953999999999999	6.518266666666666	1
821.0233284041965	0.3953333333333332	6.599466666666667	1
821.0233284041965	0.38923333333333315	6.622133333333334	1
821.1217440020408	0.38923333333333315	6.7648	1
821.1217440020408	0.39256666666666656	6.7648	1
821.8225706467564	0.38723333333333326	6.846266666666667	1
821.8225706467564	0.3920999999999999	6.973733333333333	1
821.822017277909	0.3942999999999999	6.894133333333333	1
821.822017277909	0.39556666666666657	6.9497333333333335	1
822.2241169921235	0.3877666666666666	7.022000000000001	1
822.2241169921235	0.38826666666666654	7.026533333333333	1
822.2241242012182	0.3904666666666666	7.034399999999999	1
822.2241242012182	0.3850999999999999	7.054399999999999	1
822.3215127549787	0.39026666666666654	6.892666666666667	1
822.7241715278917	0.3971999999999999	7.098133333333333	1
822.7241715278917	0.3971999999999999	7.198133333333334	1
823.4830944217897	0.38866666666666655	7.110933333333334	1
823.4830944217897	0.39406666666666657	7.110933333333334	1
823.530952707379	0.3939999999999999	7.1747999999999985	1
823.530952707379	0.37639999999999985	7.193466666666667	1
824.031565160287	0.3952333333333332	7.219066666666666	1
824.031565160287	0.3942666666666666	7.2034666666666665	1
824.3854449669719	0.3937999999999999	7.005333333333333	1
824.3854449669719	0.3853333333333332	7.0528	1
824.4338861621214	0.3879666666666665	7.049733333333333	1
824.4344208717686	0.38366666666666654	6.969333333333334	1
824.4344208717686	0.3902999999999999	7.252	1
824.8410235448173	0.3902999999999999	7.372666666666667	1
824.8410235448173	0.3946999999999999	7.233333333333333	1
825.5996622968455	0.40029999999999993	7.233333333333333	1
825.5996622968455	0.3948999999999999	7.133866666666666	1
825.7023191874025	0.3883666666666665	6.909333333333333	1
825.7023191874025	0.3869999999999999	6.83	1
825.7012884171232	0.39083333333333325	6.801866666666666	1
825.7012884171232	0.38673333333333326	6.964133333333333	1
826.1025306481381	0.3892666666666666	7.2089333333333325	1
826.1025306481381	0.3863666666666666	7.322933333333333	1
826.5131744891095	0.3856333333333332	7.318666666666666	1
826.5131744891095	0.3899333333333332	7.2184	1
826.8171373618876	0.3899333333333332	7.269066666666666	1
826.8171373618876	0.3873999999999999	7.0016	1
826.8171373618876	0.3885999999999999	7.0016	1
827.3227518294565	0.38666666666666655	7.057599999999999	1
827.3227518294565	0.38793333333333324	7.164399999999999	1
827.8298001303252	0.39273333333333327	7.223999999999999	1
827.8298001303252	0.39216666666666655	7.263733333333333	1
828.1317850737043	0.3899999999999999	7.280533333333333	1
828.1317850737043	0.3926333333333332	7.280799999999999	1
828.2385972509103	0.3924999999999999	7.371866666666667	1
828.2385972509103	0.3840333333333332	7.355199999999998	1
828.644612890084	0.3923333333333332	7.293466666666666	1
828.6456046394871	0.3923333333333332	7.259999999999999	1
828.6456046394871	0.3945999999999999	7.242533333333332	1
829.2544044483855	0.3949999999999999	7.242533333333332	1
829.2544044483855	0.3951333333333332	7.282800000000001	1
829.461307108006	0.3976999999999999	7.340133333333333	1
829.461307108006	0.38899999999999985	7.241866666666665	1
829.5615140959007	0.39706666666666657	7.462933333333334	1
829.5615140959007	0.3842333333333332	7.62	1
829.8694226135297	0.3921999999999999	7.6548	1
829.8694226135297	0.3970666666666665	7.677733333333332	1
829.8694271027381	0.3936333333333332	7.633066666666665	1
829.8694271027381	0.39373333333333327	7.526266666666667	1
830.3816799080223	0.3897999999999999	7.7368	1
830.5301971437065	0.3897999999999999	7.702000000000001	1
830.5301971437065	0.38683333333333325	7.4513333333333325	1
830.9409201375888	0.3870666666666666	7.4513333333333325	1
830.9409201375888	0.38789999999999986	7.479333333333334	1
831.2007027929837	0.38683333333333325	7.4807999999999995	1
831.2007027929837	0.39376666666666654	7.442133333333333	1
831.2007027929837	0.38889999999999986	7.410266666666665	1
831.2007027929837	0.4004333333333332	7.3974666666666655	1
831.7128185915248	0.38859999999999983	7.318399999999999	1
831.7128185915248	0.3983666666666666	7.008933333333332	1
832.1241656321878	0.3946999999999999	7.034666666666667	1
832.1241656321878	0.38809999999999995	7.342666666666665	1
832.6373924168697	0.38809999999999995	7.4636	1
833.0488052966526	0.3963333333333332	7.389199999999999	1
833.0488052966526	0.39366666666666655	7.389199999999999	1
833.3564692690487	0.39106666666666656	7.331733333333333	1
833.3564692690487	0.3928666666666666	7.395199999999998	1
833.3568731222498	0.3989666666666666	7.301866666666665	1
833.3568731222498	0.39123333333333327	7.2932	1
833.8725094905114	0.40093333333333325	7.327733333333333	1
833.8725094905114	0.3883666666666665	7.398666666666666	1
834.1870508670787	0.3905666666666665	7.492800000000001	1
834.1870508670787	0.3949666666666666	7.521333333333332	1
834.3348340245432	0.39586666666666653	7.5457333333333345	1
834.3348340245432	0.39586666666666653	7.417866666666666	1
834.7533011070296	0.4129666666666666	7.398266666666665	1
835.2675032794814	0.4049666666666666	7.398266666666665	1
835.2675032794814	0.41236666666666655	7.369733333333332	1
835.4776303210681	0.4176333333333332	7.510533333333333	1
835.4776303210681	0.4203666666666665	7.614666666666666	1
836.0473214461837	0.4196333333333332	7.578666666666665	1
836.0473214461837	0.44099999999999984	7.464666666666665	1
836.0472842054033	0.4372999999999999	7.362800000000001	1
836.0472842054033	0.4487333333333334	7.439466666666667	1
836.7752663277065	0.4666999999999999	7.372533333333334	1
836.7752663277065	0.4854666666666666	7.359733333333332	1
836.7753052575287	0.4864333333333333	7.3426666666666645	1
837.0874253824142	0.4864333333333333	7.421733333333333	1
837.0874253824142	0.4970333333333332	7.421733333333333	1
837.2440173155787	0.5103666666666665	7.269866666666667	1
837.2440173155787	0.5282333333333332	7.291333333333332	1
837.3473619506775	0.5179999999999999	7.432533333333333	1
837.3473619506775	0.5276	7.552933333333334	1
837.7610430322234	0.5658	7.643999999999999	1
837.7610430322234	0.5643333333333331	7.592666666666665	1
837.9254810510278	0.5930666666666665	7.420799999999999	1
837.9254810510278	0.6311333333333332	7.543333333333333	1
838.1805901506556	0.6264333333333334	7.474399999999999	1
838.1805901506556	0.6264333333333334	7.379733333333333	1
838.4937351722903	0.6381333333333332	7.270666666666666	1
838.4937351722903	0.6832333333333332	7.270666666666666	1
839.2249228870942	0.7321333333333332	7.398799999999998	1
839.2249174565316	0.7506666666666666	7.553999999999999	1
839.2249174565316	0.7628666666666666	7.5069333333333335	1
839.431034100747	0.7666666666666666	7.373733333333333	1
839.431034100747	0.7721999999999999	7.325066666666666	1
839.5385914263649	0.7910999999999998	7.2896	1
839.5385914263649	0.7948666666666666	7.334399999999999	1
840.3759566795106	0.8786666666666666	7.320533333333333	1
840.3759566795106	0.9884666666666665	7.510666666666666	1
840.6916907150915	0.9884666666666665	7.6587999999999985	1
840.6916907150915	1.055233333333333	7.599466666666667	1
840.8457462493989	1.0707666666666666	7.599466666666667	1
840.8457462493989	1.0746666666666667	7.4392	1
840.8958692263686	1.0606666666666664	7.289066666666666	1
840.8958692263686	1.0987333333333331	7.371466666666667	1
840.8958692263686	1.2065666666666663	7.374533333333332	1
841.3182888536297	1.1913666666666665	7.325866666666667	1
841.3182888536297	1.2217999999999998	7.291199999999999	1
841.5324795113021	1.2768666666666666	7.314399999999999	1
841.5324795113021	1.2759333333333331	7.027999999999999	1
841.63588108733	1.2608666666666666	6.883066666666667	1
841.63588108733	1.3944999999999999	7.066666666666666	1
842.2140964510181	1.3944999999999999	6.9181333333333335	1
842.2140964510181	1.4901666666666664	6.9181333333333335	1
842.6877891633627	1.6107333333333331	7.025466666666667	1
842.9072731628366	1.7234999999999998	7.1196	1
842.9072731628366	1.8549666666666667	7.180666666666666	1
843.2155365735979	1.972033333333333	7.316933333333333	1
843.4284320806466	2.1693	7.5736	0.40000000000000013
843.4284320806466	1.3804666666666667	7.560933333333333	1
843.4296911711758	1.4137666666666664	7.513066666666667	1
843.4296911711758	1.4137666666666664	7.139599999999999	1
844.3789402012136	2.075366666666666	5.313866666666666	0.40000000000000013
844.6998716137472	1.5567333333333333	5.242533333333332	1
844.6998716137472	0.8659666666666666	3.7334666666666667	1
844.805003953748	1.3519666666666663	3.1336	1
844.805003953748	1.5132666666666665	2.8998666666666666	1
842.6860949230763	1.8601666666666665	7.307999999999999	1
842.161570938188	1.6962333333333333	7.221066666666665	1
842.161570938188	1.4784	6.982266666666666	1
841.8441888724677	1.4458	6.9984	1
841.8441888724677	1.3664333333333332	7.1517333333333335	1
841.5312322599387	1.2884	7.248799999999999	1
841.5312322599387	1.2618333333333331	7.315199999999998	1
841.4266506335817	1.2618333333333331	7.005333333333333	1
841.4266506335817	1.205833333333333	7.003866666666668	1
841.2156933047935	1.1908333333333332	7.003866666666668	1
840.9525137780553	1.1825333333333332	7.207866666666666	1
840.9525137780553	1.0933666666666666	7.2957333333333345	1
840.8454410489466	1.0842333333333334	7.353199999999998	1
840.8454410489466	1.0770333333333333	7.373066666666667	1
840.6916059266671	1.0461	7.482266666666666	1
840.6916059266671	1.0033	7.421199999999999	1
840.3305576425221	0.9438666666666665	7.3094666666666654	1
840.3305576425221	0.8576999999999998	7.376133333333334	1
839.5380738986042	0.7823999999999999	7.300133333333333	1
839.5380738986042	0.7823999999999999	7.3133333333333335	1
839.4310999284979	0.7696666666666665	7.347733333333332	1
839.4310999284979	0.7656666666666666	7.347733333333332	1
839.1172063502413	0.7405333333333333	7.4036	1
838.9543967526939	0.7330666666666666	7.475466666666665	1
838.9543967526939	0.7221666666666666	7.369466666666667	1
838.1806052125108	0.6897333333333333	7.397599999999999	1
838.1806052125108	0.6386666666666666	7.4868	1
837.9731816996185	0.6203666666666665	7.353999999999999	1
837.9731816996185	0.5822666666666665	7.320533333333333	1
837.7136599777596	0.5761666666666666	7.412133333333334	1
837.7136599777596	0.5538333333333333	7.539466666666666	1
837.3967900220634	0.5538333333333333	7.409066666666666	1
837.3967900220634	0.5366666666666666	7.2832	1
837.2386547720523	0.5267333333333333	7.2832	1
837.2386547720523	0.5108333333333333	7.2584	1
837.2869154651819	0.5161333333333332	7.310666666666666	1
837.2869154651819	0.5024666666666666	7.332400000000001	1
836.8243932151014	0.4842333333333333	7.550133333333331	1
836.5158207108049	0.4777666666666666	7.61	1
836.5158207108049	0.46709999999999996	7.604266666666666	1
836.1010986749055	0.46386666666666654	7.624	1
836.1010986749055	0.4395666666666666	7.496399999999999	1
835.684921333552	0.4282666666666665	7.5922666666666645	1
835.684921333552	0.4282666666666665	7.557066666666667	1
835.5298960844506	0.43616666666666654	7.5510666666666655	1
835.5298960844506	0.4183666666666666	7.5510666666666655	1
834.3735951809319	0.4198666666666666	7.433333333333334	1
834.3735951809319	0.41659999999999986	7.329200000000001	1
835.2188618736009	0.4097999999999999	7.306666666666667	1
835.2188618736009	0.39803333333333324	7.322266666666668	1
834.6502815918113	0.3998666666666665	7.395466666666667	1
834.6502815918113	0.3947999999999999	7.448533333333332	1
834.3393229795652	0.4021666666666666	7.478666666666666	1
833.8731966243382	0.40086666666666654	7.3536	1
833.8731966243382	0.39529999999999993	7.3256	1
833.718039978787	0.39379999999999993	7.326666666666667	1
833.718039978787	0.39379999999999993	7.2392	1
833.3568404925496	0.3942666666666666	7.2268	1
833.3568404925496	0.3926333333333332	7.2268	1
833.3568404925496	0.39189999999999986	7.245999999999999	1
833.3568404925496	0.3978999999999999	7.292666666666667	1
832.5373019360209	0.39883333333333326	7.438533333333331	1
832.5373019360209	0.3861333333333333	7.429333333333334	1
832.1231042043987	0.3873666666666666	7.412133333333333	1
832.1231042043987	0.38889999999999986	7.067599999999999	1
831.7127091103838	0.3913999999999999	7.252533333333334	1
831.7126495191609	0.3994666666666666	7.401733333333332	1
831.7126495191609	0.39526666666666654	7.402933333333333	1
831.7123634575518	0.39526666666666654	7.4764	1
831.7123634575518	0.39319999999999994	7.518133333333332	1
831.147157760699	0.3826333333333332	7.518133333333332	1
831.147157760699	0.40566666666666656	7.4411999999999985	1
830.4804911234165	0.3975999999999999	7.5396	1
830.4804911234165	0.3958999999999999	7.4530666666666665	1
830.4292282931641	0.3912333333333332	7.3652	1
830.4292282931641	0.38826666666666654	7.4626666666666654	1
829.8260970784975	0.38583333333333325	7.536266666666667	1
829.8704027271933	0.39153333333333323	7.598266666666666	1
829.8704027271933	0.4012333333333333	7.759733333333333	1
829.4634333356112	0.38466666666666655	7.734133333333332	1
829.4634333356112	0.38466666666666655	7.4964	1
829.4611794951213	0.39149999999999985	7.303999999999999	1
829.4611794951213	0.3873666666666665	7.303999999999999	1
829.2574396775391	0.3852333333333332	7.355999999999999	1
829.2574396775391	0.39166666666666655	7.443999999999999	1
828.6426453051906	0.3913999999999999	7.2484	1
828.6426453051906	0.3928666666666666	7.252666666666667	1
828.5455152873513	0.38656666666666656	7.285066666666666	1
828.5455152873513	0.38793333333333324	7.2632	1
828.1347827716236	0.39253333333333323	7.353199999999998	1
827.8319201862121	0.39356666666666656	7.315866666666666	1
827.8319201862121	0.3957999999999999	7.249333333333334	1
827.8319201862121	0.38276666666666653	7.207866666666666	1
827.8319201862121	0.38276666666666653	7.310133333333333	1
827.3227315780617	0.38406666666666656	7.310133333333333	1
827.3227315780617	0.38633333333333325	7.240266666666667	1
826.9150179214214	0.38083333333333325	7.085733333333333	1
826.9150179214214	0.39389999999999986	7.068266666666667	1
826.4096069231965	0.39393333333333325	6.855866666666667	1
826.4096069231965	0.3896333333333332	7.059466666666667	1
826.103464898149	0.3800999999999999	7.210933333333332	1
826.103464898149	0.38906666666666656	7.322266666666666	1
825.7024691461454	0.3820666666666666	7.2756	1
825.5991006268654	0.3816666666666666	6.9848	1
825.5991006268654	0.3859999999999999	6.9534666666666665	1
825.2953463568538	0.3859999999999999	7.015733333333334	1
825.2953463568538	0.3908999999999999	7.000133333333333	1
824.6899179576029	0.39293333333333325	7.000133333333333	1
824.6899179576029	0.3948999999999999	7.222666666666666	1
824.3873240279491	0.3802333333333332	6.960799999999999	1
824.3873240279491	0.3844999999999999	6.9892	1
824.3878669996532	0.39093333333333324	7.211066666666666	1
824.3878669996532	0.3956333333333332	7.322799999999999	1
824.0306738324301	0.3899333333333333	7.404266666666666	1
823.5288029896316	0.3848666666666665	7.3525333333333345	1
823.5288029896316	0.39416666666666655	7.236933333333333	1
822.7242355595574	0.37766666666666654	7.290799999999999	1
822.7242355595574	0.37766666666666654	7.204	1
822.4242484302472	0.3849666666666666	7.152533333333334	1
822.4242484302472	0.39233333333333326	7.152533333333334	1
822.2742296815875	0.38526666666666654	6.954400000000001	1
822.2742296815875	0.39333333333333326	7.0338666666666665	1
822.2235817241499	0.38643333333333324	6.989333333333334	1
822.2235817241499	0.3825333333333333	6.787466666666668	1
821.8233627952677	0.38333333333333325	6.759066666666666	1
821.8233627952677	0.3850333333333332	6.756400000000001	1
821.8222496369767	0.38643333333333324	6.7395999999999985	1
821.1209540572045	0.3842666666666666	6.767333333333332	1
821.1209540572045	0.3865999999999999	6.7918666666666665	1
821.0233787642389	0.3865999999999999	6.767733333333334	1
821.0233787642389	0.3924333333333332	6.7325333333333335	1
820.5217978922228	0.38356666666666656	6.7325333333333335	1
820.5217978922228	0.3859333333333332	6.731600000000001	1
820.5228812742761	0.37759999999999994	6.7016	1
820.5228812742761	0.3909999999999999	6.7316	1
819.8194588101508	0.3955666666666665	6.465066666666667	1
819.8194588101508	0.3957999999999999	6.430400000000001	1
819.7254877479417	0.39186666666666653	6.4097333333333335	1
819.7254877479417	0.3891333333333332	6.271066666666666	1
818.7830630653647	0.39566666666666656	6.494400000000001	1
818.6253655493268	0.39099999999999996	6.5268	1
818.6253655493268	0.39099999999999996	6.2809333333333335	1
818.6280254513604	0.38399999999999984	6.2284	1
818.6280254513604	0.38119999999999993	6.2284	1
817.73672582195	0.39913333333333323	6.3256000000000006	1
817.73672582195	0.3849999999999999	6.219600000000001	1
817.6389362276025	0.3856333333333332	6.1735999999999995	1
817.6389362276025	0.3833666666666666	6.246133333333334	1
817.3354892210975	0.39183333333333326	6.380533333333334	1
817.3354892210975	0.3859999999999999	6.479466666666667	1
816.8452983097907	0.38756666666666656	6.568533333333334	1
816.8452983097907	0.38416666666666655	6.572133333333334	1
816.5445253017788	0.3822999999999999	6.452266666666666	1
816.5445253017788	0.3822999999999999	6.28	1
815.7422211320745	0.38376666666666653	6.330533333333333	1
815.2643332232623	0.38946666666666657	6.330533333333333	1
815.2643332232623	0.3791666666666666	6.3844	1
815.2642132643431	0.3920333333333332	6.4512	1
815.2642132643431	0.39849999999999997	6.510266666666666	1
815.1215966265822	0.38416666666666655	6.5705333333333344	1
815.1215966265822	0.39813333333333323	6.5982666666666665	1
814.769418650568	0.4000333333333332	6.494933333333333	1
814.769418650568	0.3777333333333332	6.519066666666666	1
814.7704896482178	0.3801333333333332	6.518933333333333	1
814.7704896482178	0.39133333333333326	6.381733333333333	1
814.2344068658728	0.39043333333333324	5.9688	1
814.2344068658728	0.39043333333333324	6.290266666666667	1
813.9833961391757	0.3915999999999999	6.290266666666667	1
813.4485092629574	0.37913333333333327	6.356933333333335	1
813.4485092629574	0.3888666666666666	6.123333333333333	1
813.0994350883852	0.39126666666666654	6.161733333333333	1
813.0994350883852	0.3870666666666666	6.273733333333333	1
813.0991807359468	0.38656666666666656	6.3068	1
813.0991807359468	0.3941333333333332	6.228133333333333	1
812.7080340629872	0.3783999999999999	6.064533333333333	1
812.7080340629872	0.3970333333333332	6.152	1
811.8794003163545	0.39529999999999993	6.178266666666667	1
811.8794003163545	0.39529999999999993	6.183599999999999	1
811.827357803769	0.39653333333333324	6.2893333333333326	1
811.827357803769	0.3896999999999999	6.2893333333333326	1
811.7322910829246	0.38573333333333326	6.2940000000000005	1
811.535730815861	0.3947666666666666	6.0668	1
811.535730815861	0.39866666666666656	6.052666666666666	1
811.2552516632308	0.38343333333333324	6.225466666666666	1
811.2552516632308	0.3997999999999999	6.1677333333333335	1
811.0481683976907	0.38363333333333327	6.111466666666667	1
811.0481683976907	0.3877666666666666	6.117733333333334	1
810.7504753168497	0.39213333333333317	6.2459999999999996	1
810.7504753168497	0.3910333333333332	6.530666666666668	1
810.5615880720643	0.3910333333333332	6.492133333333333	1
810.5615880720643	0.38689999999999986	6.313999999999999	1
809.7823967236552	0.39226666666666654	6.313999999999999	1
809.7823967236552	0.38429999999999986	6.475733333333333	1
809.7824674170577	0.38649999999999984	6.5256	1
809.7824674170577	0.3938333333333332	6.544800000000001	1
809.2979236723962	0.3899333333333332	6.521333333333334	1
808.4248766928105	0.38626666666666654	6.414000000000001	1
808.4248766928105	0.3871666666666666	6.276666666666666	1
808.2274277323157	0.3911999999999999	6.5164	1
808.2274277323157	0.38633333333333325	6.652266666666667	1
808.1330927248356	0.3940999999999999	6.3148	1
808.1330927248356	0.3940999999999999	6.230666666666668	1
808.0376194670893	0.39183333333333326	6.645333333333333	1
808.0376194670893	0.3747666666666665	6.645333333333333	1
807.6523182065529	0.38829999999999987	6.732933333333333	1
807.6523182065529	0.3837999999999999	6.392666666666666	1
807.3580656268796	0.39276666666666654	6.1612	1
807.3580656268796	0.3808999999999999	6.212266666666667	1
806.8771911738397	0.3813	6.5953333333333335	1
806.4921484659501	0.38543333333333324	6.324933333333333	1
806.4921484659501	0.3816666666666666	6.8684	1
806.0115742236181	0.3889333333333332	6.8052	1
806.0115742236181	0.3887999999999999	6.6735999999999995	1
806.0123249558478	0.3887999999999999	6.655466666666667	1
806.0123249558478	0.3949333333333332	6.599866666666667	1
804.9524487225065	0.3835333333333332	6.599866666666667	1
804.9524487225065	0.38706666666666656	6.329866666666667	1
804.8563412590673	0.3940333333333333	6.418666666666668	1
804.8563412590673	0.3837333333333332	6.4432	1
804.8561275882454	0.38796666666666657	6.512	1
804.8561275882454	0.39253333333333323	6.250533333333333	1
804.2934267568489	0.3885999999999999	6.0988	1
804.3768118537814	0.3853333333333332	6.363333333333334	1
804.3768118537814	0.38609999999999994	6.359600000000001	1
804.3769390076719	0.3787999999999999	6.354933333333335	1
804.3769390076719	0.38916666666666655	6.0203999999999995	1
803.993111535063	0.38916666666666655	5.727466666666666	1
803.993111535063	0.3863333333333332	5.727466666666666	1
803.6105155895866	0.3888666666666666	5.721066666666666	1
803.6105155895866	0.3817999999999999	5.3580000000000005	1
803.609561888884	0.37536666666666657	5.003466666666666	1
803.609561888884	0.38123333333333326	4.0608	1
802.8442580858283	0.38716666666666655	3.2676	1
802.8442580858283	0.3959999999999999	2.4678666666666667	1
802.7512616087739	0.3928999999999999	2.1316	1
802.7512616087739	0.4017333333333332	1.4495999999999996	1
801.6065472160254	0.3823333333333332	0.6415999999999997	1
801.6078933863959	0.3899666666666666	0.35999999999999993	1
801.6078933863959	0.3899666666666666	0.31373333333333314	1
801.4146986092389	0.38583333333333325	0.27973333333333317	1
801.4146986092389	0.3969666666666666	0.27973333333333317	1
801.2246117130121	0.39919999999999994	0.22706666666666672	1
801.2246117130121	0.3950666666666666	0.20000000000000018	1
801.0908035438086	0.3950333333333332	0.2005333333333335	1
801.0908035438086	0.38033333333333325	0.19920000000000015	1
801.1309531353572	0.4014333333333332	0.19760000000000016	1
801.1309531353572	0.3950999999999999	0.1076000000000001	1
800.3685431708128	0.3821999999999999	0.04266666666666671	1
800.3685431708128	0.3881999999999999	0.040000000000000036	1
800.3678852364512	0.38909999999999995	0.040000000000000036	1
800.3678852364512	0.38909999999999995	0.040000000000000036	1
