wavelength(nm)	flourescence PMT(V)	ti_saph Power (V)	Gain (V)
800.3655916515814	0.38543333333333324	0.040000000000000036	1
800.3655916515814	0.3900666666666665	0.040000000000000036	1
800.8401147592435	0.3815999999999999	0.08720000000000008	1
800.8401147592435	0.39569999999999994	0.13573333333333348	1
801.1254524581557	0.38409999999999994	0.2001333333333335	1
801.2201463439512	0.39726666666666655	0.19986666666666683	1
801.2201463439512	0.39726666666666655	0.20160000000000017	1
801.4112771831618	0.39566666666666656	0.24186666666666667	1
801.4112771831618	0.3849666666666666	0.24186666666666667	1
801.411159649205	0.38896666666666657	0.2598666666666666	1
801.411159649205	0.38456666666666656	0.2803999999999998	1
801.6021620345302	0.3866333333333333	0.34519999999999984	1
801.6032335015178	0.3867333333333332	0.3601333333333332	1
801.6032335015178	0.3804666666666665	0.36026666666666657	1
801.6032335015178	0.38693333333333324	1.5546666666666664	1
801.6032335015178	0.3945999999999999	1.5743999999999998	1
802.8419368870896	0.3894999999999999	2.022	1
802.8419368870896	0.38853333333333323	2.583733333333333	1
802.935659833333	0.3922333333333332	2.9824	1
803.2228618751166	0.3922333333333332	3.0856000000000003	1
803.2228618751166	0.3890999999999999	3.559333333333333	1
803.6069055743377	0.38973333333333327	3.559333333333333	1
803.6069055743377	0.39333333333333326	4.002533333333332	1
803.9921759357754	0.3844333333333333	5.191466666666667	1
803.9921759357754	0.38769999999999993	5.676933333333333	1
804.0859162986791	0.3959999999999999	5.810933333333334	1
804.0872149359376	0.38116666666666654	5.914133333333333	1
804.0872149359376	0.3874999999999999	6.286533333333334	1
804.331036081504	0.3907666666666666	6.549466666666667	1
804.331036081504	0.3859999999999999	6.364400000000002	1
804.7599922275114	0.38893333333333324	6.401466666666668	1
804.8542999524552	0.38893333333333324	6.500266666666667	1
804.8542999524552	0.3883666666666665	6.525333333333333	1
804.8544428114277	0.39453333333333324	6.525333333333333	1
804.8544428114277	0.38646666666666657	6.5176	1
804.8545373818316	0.3843666666666666	6.547866666666667	1
804.9479804813072	0.3907333333333332	6.6288	1
804.9479804813072	0.39303333333333323	6.682133333333333	1
806.0087596945771	0.38806666666666656	7.0334666666666665	1
806.0087596945771	0.38593333333333324	7.0104	1
806.1985758757305	0.3993333333333332	6.954133333333332	1
806.1985758757305	0.3881999999999999	6.739333333333334	1
806.3935059137548	0.38596666666666657	6.758533333333333	1
806.9298985707563	0.3837999999999999	7.0346666666666655	1
806.9298985707563	0.3837999999999999	6.986666666666666	1
806.9687814341784	0.37756666666666655	6.986666666666666	1
806.9687814341784	0.39016666666666655	6.866666666666666	1
807.3570814878824	0.40116666666666656	6.3896000000000015	1
807.8382502899271	0.39643333333333325	6.360400000000001	1
807.8382502899271	0.3859999999999999	6.708266666666667	1
808.0323332199698	0.3899333333333332	6.6412	1
808.0323332199698	0.3952333333333332	6.9064000000000005	1
808.1320703807497	0.38943333333333324	6.817866666666667	1
808.1321066965646	0.3874999999999999	6.597600000000001	1
808.1321066965646	0.3760333333333332	6.4568	1
808.2264953331394	0.3760333333333332	6.712	1
808.2264953331394	0.37569999999999987	6.7536000000000005	1
808.2265799085844	0.39006666666666656	6.7536000000000005	1
808.2265799085844	0.39879999999999993	6.719199999999999	1
808.2273874369201	0.3918666666666666	6.683999999999999	1
809.3907935241344	0.3853666666666666	6.4496	1
809.3907935241344	0.38876666666666654	6.509600000000001	1
809.4873066711237	0.3833666666666666	6.4476	1
809.4873066711237	0.39066666666666655	6.358266666666668	1
809.734613248041	0.39139999999999986	6.458266666666667	1
809.7778512024702	0.3797666666666666	6.649066666666667	1
809.7778512024702	0.38373333333333326	6.621200000000001	1
810.2623380006503	0.39019999999999994	6.356533333333334	1
810.2623380006503	0.39019999999999994	6.763066666666667	1
810.6562803197979	0.3906999999999999	6.767733333333334	1
810.6552760153453	0.3911333333333333	6.767733333333334	1
810.6552760153453	0.38416666666666655	6.7085333333333335	1
811.0445513062214	0.38329999999999986	6.529466666666667	1
811.0445513062214	0.3840999999999999	6.362	1
811.3373978310924	0.3948999999999999	6.691199999999999	1
811.3373978310924	0.38343333333333324	6.731866666666667	1
811.433356285618	0.3878333333333332	6.6769333333333325	1
811.7335303260858	0.3827333333333332	6.3384	1
811.7335303260858	0.3997666666666666	6.529333333333333	1
811.7781892888617	0.3846999999999999	6.538799999999999	1
811.7781892888617	0.39666666666666656	6.576133333333334	1
811.8738930560562	0.39666666666666656	6.440266666666667	1
811.878321414289	0.39189999999999986	6.376533333333334	1
811.878321414289	0.3838666666666666	6.376533333333334	1
812.656762349752	0.3849999999999999	6.333866666666668	1
812.656762349752	0.3817999999999999	6.275733333333333	1
813.0946903541061	0.38956666666666656	6.237466666666666	1
813.0534251741444	0.3823333333333332	6.4924	1
813.0534251741444	0.39253333333333323	6.308133333333333	1
813.1490721599225	0.39043333333333324	6.175733333333334	1
813.1490721599225	0.38669999999999993	6.1928	1
813.4439566919496	0.4003333333333332	6.034400000000001	1
813.4439566919496	0.3873999999999999	6.330666666666667	1
814.0324069534997	0.3873999999999999	6.296	1
814.2289282100166	0.3865999999999999	6.2852	1
814.2289282100166	0.3893666666666666	6.2852	1
814.7669174037796	0.39633333333333326	6.0629333333333335	1
814.7669174037796	0.3810333333333332	6.5236	1
814.7678345072522	0.38506666666666656	6.550933333333334	1
815.1169036342644	0.3826666666666666	6.4967999999999995	1
815.1169036342644	0.3949666666666666	6.472666666666666	1
815.1169932115031	0.3915999999999999	6.467466666666667	1
815.1169932115031	0.39239999999999986	6.523066666666667	1
815.2605502620823	0.3806333333333332	6.650266666666666	1
815.2598717359964	0.38943333333333324	6.672133333333333	1
815.2598717359964	0.38943333333333324	6.458	1
815.4089519966672	0.3859999999999999	6.348266666666668	1
815.4089519966672	0.3851333333333332	6.348266666666668	1
816.2484710245618	0.3895999999999999	6.262533333333334	1
816.2484710245618	0.38346666666666657	6.188000000000001	1
816.5409784825857	0.3973999999999999	6.371733333333335	1
816.8394926370556	0.3904666666666666	6.587600000000001	1
816.8394926370556	0.3892666666666666	6.656	1
817.4323296023784	0.3933999999999999	6.645599999999999	1
817.4323296023784	0.3868666666666666	6.5840000000000005	1
817.634122577053	0.3877999999999999	6.579066666666668	1
817.6340606685084	0.38569999999999993	6.529866666666667	1
817.6340606685084	0.37976666666666653	6.4741333333333335	1
817.7340303910388	0.37976666666666653	6.386933333333334	1
817.7340303910388	0.3861999999999999	6.386933333333334	1
818.6253964549908	0.3888999999999999	6.330266666666667	1
818.6253964549908	0.3911999999999999	6.329733333333333	1
818.6253964549908	0.3890333333333333	6.341066666666667	1
818.6278015592487	0.3938333333333332	6.355200000000002	1
818.6278015592487	0.39389999999999986	6.321066666666667	1
818.9736945687804	0.3896333333333332	6.369066666666668	1
818.9736945687804	0.38639999999999985	6.357066666666668	1
818.9743376266191	0.38553333333333323	6.341066666666667	1
819.816055978915	0.39266666666666655	6.5816	1
819.816055978915	0.3791999999999999	6.701733333333333	1
814.8076806187104	0.3791999999999999	6.729466666666667	1
814.8076806187104	0.3914666666666666	6.7056	1
820.6173992370267	0.3938333333333332	6.7056	1
820.6215110815364	0.3943333333333332	6.6536	1
820.6215110815364	0.3935999999999999	6.6808	1
821.1142377088811	0.39266666666666655	6.8751999999999995	1
821.1142377088811	0.3814999999999999	6.814533333333333	1
821.1171509956625	0.39166666666666655	6.7288	1
821.1171509956625	0.39213333333333317	6.6952	1
821.5155214141618	0.38156666666666655	6.508	1
821.870241416047	0.38956666666666656	6.632666666666667	1
821.870241416047	0.3928333333333332	6.831466666666667	1
822.1721213019518	0.39603333333333324	6.906933333333335	1
822.1721213019518	0.39603333333333324	6.869333333333333	1
822.2229244305806	0.38376666666666653	6.869333333333333	1
822.3188748870912	0.3992333333333333	6.929599999999999	1
822.3188748870912	0.39376666666666654	6.826266666666665	1
822.7232407743444	0.3936999999999999	6.704133333333333	1
822.7232407743444	0.3924333333333332	6.893066666666667	1
822.7195027418102	0.3890333333333333	7.1630666666666665	1
822.7195027418102	0.39153333333333323	7.252666666666667	1
823.4786575507171	0.39166666666666655	7.075333333333333	1
823.8803631995594	0.38669999999999993	7.2136	1
823.8803631995594	0.39506666666666657	7.25	1
824.0274996653869	0.39506666666666657	7.320933333333333	1
824.0274996653869	0.39229999999999987	7.2292000000000005	1
824.3831506129407	0.39149999999999985	7.2292000000000005	1
824.3850146894302	0.3950666666666665	7.239199999999999	1
824.3850146894302	0.3922333333333332	7.2481333333333335	1
824.3869605498317	0.3801999999999999	7.2432	1
824.3869605498317	0.3816333333333332	7.224799999999998	1
824.8363436689177	0.3897666666666666	7.1896	1
824.8363436689177	0.4017999999999999	7.287599999999999	1
825.2934541324519	0.3881333333333332	7.303066666666667	1
825.5966356169985	0.39183333333333326	7.0416	1
825.5966356169985	0.3956333333333332	7.055333333333332	1
825.7423627650268	0.3956333333333332	7.054266666666666	1
825.7423627650268	0.37963333333333327	7.292533333333334	1
825.7423627650268	0.3949999999999999	7.292533333333334	1
825.7423627650268	0.3897999999999999	7.420133333333333	1
826.1015281091131	0.3888999999999999	7.325466666666666	1
826.1015502679304	0.38906666666666656	7.306666666666667	1
826.1015502679304	0.3926333333333333	7.249866666666667	1
826.9150375779508	0.3939999999999999	7.1632	1
826.9150375779508	0.3941999999999999	7.026933333333333	1
826.8716211621874	0.3894999999999999	6.955066666666666	1
827.218869471428	0.3800999999999999	6.932533333333333	1
827.218869471428	0.3968999999999999	7.2081333333333335	1
827.8270881471902	0.3968999999999999	7.403066666666666	1
827.8270881471902	0.3885999999999999	7.361733333333332	1
827.8270793323438	0.39373333333333327	7.361733333333332	1
828.1319191690983	0.3919999999999999	7.240399999999999	1
828.1319191690983	0.39123333333333327	7.171199999999999	1
828.3347107925638	0.39703333333333324	7.223866666666666	1
828.3347107925638	0.39723333333333327	7.161866666666665	1
828.6426394734988	0.3984666666666665	7.143733333333333	1
828.6426394734988	0.3964666666666666	7.208933333333334	1
828.6417653056297	0.3852333333333332	7.257866666666666	1
829.254889500558	0.38693333333333324	7.375866666666667	1
829.254889500558	0.3907999999999999	7.565066666666667	1
829.5577549940252	0.3907999999999999	7.459466666666668	1
829.5577549940252	0.3950999999999999	7.6936	1
829.557660638704	0.4049999999999999	7.6936	1
829.8640340532769	0.38896666666666657	7.736533333333333	1
829.8640340532769	0.3848999999999999	7.7208000000000006	1
829.9643627907981	0.38703333333333323	7.625466666666666	1
829.9643627907981	0.3945999999999999	7.463199999999999	1
830.4797004725621	0.3958999999999999	7.541733333333333	1
830.4776927936322	0.4001999999999999	7.330799999999999	1
830.4776927936322	0.3984999999999999	7.343066666666667	1
830.8899660067025	0.38119999999999993	7.277999999999999	1
830.8899660067025	0.3948999999999999	7.534266666666666	1
831.2984144888195	0.38329999999999986	7.469333333333332	1
831.2984144888195	0.38329999999999986	7.429066666666666	1
831.711763709151	0.3952999999999999	7.572399999999999	1
831.7108042080039	0.40563333333333323	7.572399999999999	1
831.7108042080039	0.38399999999999984	7.6045333333333325	1
831.7107644964203	0.3825333333333332	7.576933333333332	1
831.7107644964203	0.4028333333333332	7.558666666666668	1
832.169154565002	0.38873333333333326	7.432666666666667	1
832.5306181517055	0.3940999999999999	7.3226666666666675	1
832.5306181517055	0.3883999999999999	7.268533333333333	1
832.8426515851817	0.39359999999999995	7.146933333333333	1
832.8426515851817	0.39816666666666656	7.1316	1
833.3569406505759	0.3964333333333332	7.152399999999999	1
833.3569406505759	0.3964333333333332	7.3216	1
833.3567999717742	0.3932999999999999	7.440666666666666	1
833.3552974214723	0.3906333333333332	7.440666666666666	1
833.3552974214723	0.39406666666666657	7.3435999999999995	1
834.0158287571724	0.3919999999999999	7.1382666666666665	1
834.0158287571724	0.4086666666666666	7.24	1
834.2844485730004	0.4068999999999999	7.334399999999999	1
834.3373105323487	0.3947333333333332	7.217199999999999	1
834.3373105323487	0.39543333333333325	7.235599999999998	1
834.7993839029624	0.40149999999999986	7.239066666666666	1
834.7993839029624	0.40616666666666656	7.3717333333333315	1
835.2626885749944	0.40616666666666656	7.327066666666666	1
835.4233409705772	0.40616666666666656	7.293466666666666	1
835.4233409705772	0.4083333333333332	7.294933333333334	1
835.725154312423	0.40463333333333323	7.294933333333334	1
835.725154312423	0.4268999999999999	7.4542666666666655	1
836.0959713335944	0.4260333333333332	7.387866666666666	1
836.0959713335944	0.43776666666666664	7.275066666666667	1
836.5110429871393	0.44573333333333326	7.203866666666667	1
836.8194649334465	0.46619999999999984	7.4390666666666645	1
836.8194649334465	0.47193333333333326	7.335066666666666	1
837.0293957857789	0.5012	7.374399999999999	1
837.0293957857789	0.5020333333333332	7.296266666666665	1
837.0825243721849	0.5065333333333333	7.174533333333332	1
837.3458947241957	0.5201666666666666	7.346533333333332	1
837.3458947241957	0.5201666666666666	7.428800000000001	1
837.3467243035875	0.5272666666666666	7.428800000000001	1
837.3467243035875	0.5272999999999999	7.281600000000002	1
837.8103440830401	0.5578	7.313466666666667	1
837.8103440830401	0.5663666666666666	7.327466666666666	1
837.9673622858774	0.5944333333333333	7.370133333333333	1
838.280856863671	0.6246999999999999	7.535333333333331	1
838.280856863671	0.6393333333333333	7.469466666666666	1
838.6957008368181	0.6688333333333333	7.372	1
838.6957008368181	0.6949666666666666	7.218133333333332	1
839.1122204450324	0.7081999999999998	7.112266666666668	1
839.1164803216135	0.7032999999999998	7.076533333333334	1
839.1164803216135	0.7032999999999998	7.082133333333333	1
839.4313713887707	0.7585666666666666	7.253866666666666	1
839.4313713887707	0.7597333333333331	7.253866666666666	1
839.4275579282587	0.7723333333333333	7.404133333333332	1
839.4275579282587	0.7841666666666666	7.240266666666667	1
839.8495963674151	0.8372333333333332	7.244933333333333	1
840.4782617469469	0.9005	7.219466666666666	1
840.4782617469469	0.9279999999999999	7.123333333333333	1
840.6877648674681	1.0216666666666665	7.221599999999999	1
840.6877648674681	1.0492666666666666	7.309866666666665	1
840.8445864864666	1.0803666666666665	7.3049333333333335	1
840.8445864864666	1.1099333333333334	7.385066666666665	1
840.8445864864666	1.1099333333333334	7.372133333333333	1
841.0014272101259	1.1269	7.2856	1
841.0014272101259	1.1476333333333333	7.2856	1
841.422149585898	1.1815666666666667	7.022400000000001	1
841.422149585898	1.1806999999999999	6.865333333333333	1
841.6301017829251	1.2290666666666665	6.805066666666666	1
841.7394296190811	1.2542	6.759333333333334	1
841.7394296190811	1.2926	6.864799999999999	1
842.2602463465795	1.3542999999999998	6.882133333333333	1
842.2602463465795	1.4518999999999997	6.7244	1
842.2633786634467	1.5564333333333331	6.812666666666667	1
842.8923115683515	1.7227	6.9916	1
842.8923115683515	1.7227	7.146933333333333	1
843.1098574558697	1.8683	7.1320000000000014	1
843.1098574558697	1.9291333333333334	7.1320000000000014	1
843.423642244655	1.9508999999999999	7.118533333333333	1
843.4247078760349	2.173866666666666	7.364399999999999	0.40000000000000013
843.527178722741	1.5176999999999998	7.305066666666667	1
843.527178722741	1.2099999999999997	7.163466666666666	1
844.5864543140995	1.7535666666666665	4.788666666666666	1
844.5864543140995	1.7889666666666664	3.9113333333333338	1
844.7984893646769	1.7889666666666664	3.1006666666666667	1
844.7984893646769	1.6096333333333332	2.734	1
844.904592846023	1.5408666666666666	2.734	1
842.6845825289278	1.7223666666666668	6.959199999999999	1
842.6845825289278	1.6133333333333333	6.9378666666666655	1
842.1551576390543	1.6133333333333333	6.8221333333333325	1
842.1551576390543	1.4924	6.8221333333333325	1
841.7382651101066	1.4295	6.760800000000001	1
841.7382670238264	1.3284333333333331	6.940133333333333	1
841.7382670238264	1.3090333333333333	6.9489333333333345	1
841.4219508159227	1.2688	6.886266666666667	1
841.4219508159227	1.2076333333333331	6.82	1
841.4220081099946	1.2	6.8835999999999995	1
841.0024831749741	1.1711333333333334	6.934666666666666	1
841.0024831749741	1.101033333333333	7.204399999999999	1
841.002545836458	1.1084999999999998	7.251866666666665	1
841.002545836458	1.1084999999999998	7.2852	1
840.8443627397492	1.106933333333333	7.2485333333333335	1
840.8443627397492	1.0805333333333331	7.2485333333333335	1
840.8399954172971	1.0475333333333332	7.295733333333331	1
840.3734406527064	1.029	7.274399999999999	1
840.3734406527064	0.9842333333333333	7.282666666666666	1
840.3721458042018	0.9391333333333332	7.295466666666666	1
840.3721458042018	0.8896333333333333	7.355599999999999	1
839.4317905315651	0.8347333333333332	7.349599999999999	1
839.4312758227795	0.7988333333333333	7.324133333333332	1
839.4312758227795	0.7670999999999999	7.150666666666666	1
839.4294625423179	0.7572999999999998	7.201199999999999	1
839.4294625423179	0.7572999999999998	7.124133333333333	1
839.1126675666227	0.7299999999999999	7.073066666666667	1
839.1126675666227	0.7158333333333332	7.073066666666667	1
838.6954648639233	0.6939666666666665	7.2438666666666665	1
838.1804524323128	0.6678666666666665	7.4268	1
838.1804524323128	0.6237999999999999	7.471733333333333	1
838.1782127890438	0.6358333333333334	7.5384	1
838.1782127890438	0.6291666666666667	7.499733333333333	1
837.8106602053793	0.5815666666666666	7.302533333333333	1
837.342858915464	0.5604666666666666	7.3232	1
837.342858915464	0.5352666666666667	7.447066666666666	1
837.3440193509381	0.5343666666666664	7.584133333333333	1
837.3440193509381	0.5343666666666664	7.550133333333333	1
837.1324642559996	0.5385333333333332	7.4396	1
837.1324642559996	0.5038666666666666	7.4396	1
837.0286314382292	0.5092999999999999	7.411066666666666	1
836.8251022099824	0.49146666666666655	7.3709333333333324	1
836.8251022099824	0.4820999999999998	7.358533333333335	1
836.0968741799567	0.48796666666666655	7.3992	1
836.0968741799567	0.4552666666666666	7.325466666666665	1
836.0440770070626	0.4394333333333332	7.207599999999999	1
835.7855104208958	0.4418333333333333	7.2219999999999995	1
835.7855104208958	0.4259999999999999	7.223999999999999	1
835.4732087155638	0.4266666666666666	7.280399999999999	1
835.4732087155638	0.4091333333333333	7.320399999999999	1
835.2687551498041	0.4091333333333333	7.255466666666666	1
835.2687551498041	0.4006999999999999	7.261199999999999	1
834.8465551840205	0.4100666666666666	7.261199999999999	1
834.3383162888214	0.39876666666666655	7.3332	1
834.3383162888214	0.40723333333333317	7.248933333333333	1
834.2319919303692	0.4126999999999999	7.1778666666666675	1
834.2319919303692	0.3946666666666666	7.0857333333333345	1
833.8712392619179	0.39833333333333326	7.106000000000001	1
833.8712392619179	0.40076666666666655	7.341333333333334	1
833.6664081593016	0.40403333333333324	7.440799999999999	1
833.358316033436	0.39543333333333325	7.337866666666667	1
833.358316033436	0.39529999999999993	7.286933333333333	1
833.2525998270568	0.39529999999999993	7.187466666666666	1
833.2525998270568	0.39453333333333324	7.001333333333332	1
833.0485294846438	0.40049999999999986	7.001333333333332	1
832.636435207055	0.38306666666666656	7.074933333333332	1
832.636435207055	0.38983333333333325	7.067733333333332	1
832.17134801838	0.3902666666666666	7.267733333333332	1
832.17134801838	0.39963333333333323	7.583333333333333	1
832.17134801838	0.3965999999999999	7.627599999999999	1
832.17134801838	0.39916666666666656	7.637066666666665	1
831.7088340090355	0.39106666666666656	7.6306666666666665	1
831.7117180343527	0.39266666666666655	7.613999999999999	1
831.7117180343527	0.3911333333333333	7.6335999999999995	1
830.8870135455742	0.3911333333333333	7.386266666666667	1
830.8870135455742	0.39269999999999994	7.684266666666666	1
829.1257328952815	0.39079999999999987	7.684266666666666	1
830.4787413391358	0.3948333333333332	7.349999999999999	1
830.4787413391358	0.4017999999999999	7.3847999999999985	1
829.9698472105848	0.3838666666666666	7.603733333333333	1
829.9698472105848	0.39083333333333325	7.207333333333333	1
829.9680465522308	0.39193333333333324	7.238533333333333	1
829.9680465522308	0.3976333333333332	7.587066666666666	1
829.5595990028021	0.3987999999999999	7.612666666666666	1
829.4610358036704	0.3922666666666666	7.437599999999999	1
829.4610358036704	0.40113333333333323	7.3267999999999995	1
829.4573540406826	0.40113333333333323	7.417333333333333	1
829.4573540406826	0.39036666666666664	7.417333333333333	1
828.599296261709	0.3889333333333332	7.582799999999999	1
828.6441184076333	0.3964999999999999	7.386666666666667	1
828.6441184076333	0.39166666666666655	7.3806666666666665	1
828.335309886993	0.39336666666666653	7.348533333333333	1
828.335309886993	0.38276666666666653	7.182933333333334	1
828.1325026730957	0.39256666666666656	7.1348	1
828.1325026730957	0.3877666666666666	7.228666666666668	1
828.1325026730957	0.3875666666666666	7.3096000000000005	1
827.321559833953	0.3942666666666666	7.395999999999999	1
827.321559833953	0.39086666666666653	7.483866666666666	1
827.0136969408703	0.39086666666666653	7.341199999999999	1
827.0136969408703	0.39956666666666657	7.150399999999999	1
827.0118154683083	0.39579999999999993	7.150399999999999	1
826.5083046388904	0.39276666666666654	6.999066666666666	1
826.5083046388904	0.3906333333333332	7.0044	1
826.1016013356762	0.40226666666666655	7.162	1
826.1016013356762	0.3835999999999999	7.290133333333333	1
826.1005520767261	0.39559999999999995	7.352399999999998	1
826.1005520767261	0.39639999999999986	7.339200000000001	1
825.7428319635652	0.3923999999999999	7.180533333333333	1
825.60003298963	0.3936999999999999	7.1572	1
825.60003298963	0.3844999999999999	7.109733333333334	1
825.2933131272524	0.3844999999999999	7.176933333333333	1
825.2933131272524	0.3834999999999999	7.125466666666664	1
824.7865965605431	0.3878999999999999	7.125466666666664	1
824.7866142031296	0.38566666666666655	7.098533333333331	1
824.7866142031296	0.3899666666666666	7.101333333333334	1
824.3840652840315	0.3969999999999999	7.185866666666666	1
824.3840652840315	0.4051999999999999	7.172533333333333	1
824.3852229092464	0.37823333333333325	7.202399999999999	1
824.3852229092464	0.3907333333333332	7.1164000000000005	1
824.0291680032742	0.3923666666666666	7.165066666666666	1
823.7231903649407	0.3944666666666666	7.222533333333334	1
823.7231903649407	0.38473333333333326	6.9319999999999995	1
823.4785243042442	0.38473333333333326	6.832133333333334	1
823.4785243042442	0.39206666666666656	7.052666666666667	1
822.7220383897074	0.38876666666666654	7.052666666666667	1
822.7220383897074	0.40296666666666653	7.167599999999999	1
822.4725731583198	0.38666666666666655	6.988266666666667	1
822.273294681402	0.3896333333333332	7.082	1
822.273294681402	0.3835333333333332	7.125333333333335	1
822.2213856326705	0.38816666666666655	7.126	1
822.2213856326705	0.3991999999999999	6.8580000000000005	1
821.9188718000745	0.39886666666666654	6.681066666666666	1
821.819711146776	0.3870333333333332	6.7772	1
821.819711146776	0.38429999999999986	6.880933333333332	1
821.0186388683144	0.38579999999999987	6.949066666666666	1
821.0186388683144	0.38579999999999987	6.855999999999999	1
821.0187494178303	0.3899999999999999	6.855999999999999	1
821.0187494178303	0.3843666666666666	6.888399999999998	1
820.6706075175596	0.3874333333333332	6.8024	1
820.5249546847117	0.38956666666666656	6.5708	1
820.5249546847117	0.3873666666666665	6.593999999999999	1
819.8207682349384	0.39389999999999986	6.692533333333334	1
819.8207682349384	0.3874999999999999	6.744133333333333	1
819.8161912179646	0.38756666666666656	6.777066666666667	1
819.8161912179646	0.3856999999999999	6.464133333333334	1
818.9743650487239	0.3898999999999999	6.550800000000001	1
818.6223913168517	0.3873999999999999	6.594266666666667	1
818.6223913168517	0.3873999999999999	6.366933333333335	1
818.622401850131	0.3942999999999999	6.343733333333335	1
818.622401850131	0.38829999999999987	6.343733333333335	1
818.6242020309169	0.3873999999999999	6.424666666666667	1
817.7288716949801	0.3879999999999999	6.397600000000001	1
817.7288716949801	0.38383333333333325	6.354533333333334	1
817.4862728762383	0.39706666666666657	6.362133333333335	1
817.4862728762383	0.3927333333333332	6.513466666666667	1
817.4855059545855	0.3906666666666666	6.598533333333333	1
817.4855059545855	0.3923333333333332	6.582666666666667	1
816.8392935382528	0.3871999999999999	6.592666666666667	1
816.5444044067467	0.37923333333333326	6.591333333333335	1
816.5444044067467	0.37923333333333326	6.526000000000001	1
816.1482073507731	0.39229999999999987	6.229066666666667	1
816.1482073507731	0.3877666666666666	6.229066666666667	1
815.3043427332998	0.3924333333333332	6.371466666666667	1
815.3043427332998	0.38793333333333324	6.401866666666667	1
815.260651277133	0.3821999999999999	6.477600000000001	1
815.2594908770362	0.3802999999999999	6.547466666666668	1
815.2594908770362	0.4003333333333332	6.56	1
815.1169136052911	0.3877333333333332	6.595466666666668	1
815.1169136052911	0.3942999999999999	6.599466666666667	1
814.7672933196772	0.4032999999999999	6.6382666666666665	1
814.7656914067481	0.3806333333333332	6.685733333333332	1
814.7656914067481	0.3806333333333332	6.689733333333332	1
814.2306683100945	0.3816666666666666	6.064133333333334	1
814.2306683100945	0.38553333333333323	6.064133333333334	1
813.982984201056	0.3882999999999999	6.076666666666667	1
813.982984201056	0.3849666666666666	6.286133333333333	1
813.9805789197942	0.3922999999999999	6.2838666666666665	1
813.147777075255	0.39043333333333324	6.354666666666667	1
813.147777075255	0.3879666666666665	6.2426666666666675	1
813.0980356109592	0.38589999999999997	6.531066666666667	1
813.0980356109592	0.3897333333333332	6.6761333333333335	1
813.0514163506853	0.39006666666666656	6.702533333333333	1
813.0514163506853	0.3821666666666666	6.252800000000001	1
812.6611659509556	0.3752666666666666	6.2518666666666665	1
811.8781771972057	0.3752666666666666	6.322666666666666	1
811.8781771972057	0.3927999999999999	6.378	1
811.8783033374714	0.3854666666666665	6.378	1
811.8783033374714	0.3850333333333332	6.412133333333334	1
811.7795171163941	0.39399999999999985	6.533733333333333	1
811.7795171163941	0.3870999999999999	6.5545333333333335	1
811.5270901810017	0.3957333333333332	6.210933333333333	1
811.388871913158	0.38769999999999993	6.28	1
811.388871913158	0.3909666666666665	6.5104	1
811.3424424163583	0.3859999999999999	6.6474666666666655	1
811.3424424163583	0.3954666666666666	6.7666666666666675	1
810.7476666719978	0.3918666666666666	6.577466666666666	1
810.6571530714198	0.3918666666666666	6.257066666666666	1
810.6571530714198	0.3909999999999999	6.643466666666667	1
810.2633998495883	0.3821333333333332	6.643466666666667	1
810.2633998495883	0.3863666666666666	6.402133333333334	1
809.7797299618194	0.38576666666666654	6.448266666666667	1
809.7797299618194	0.3792666666666666	6.581200000000001	1
809.7787173089298	0.3874999999999999	6.583066666666667	1
809.3916190999068	0.38593333333333324	6.341466666666667	1
809.3916190999068	0.3902999999999999	6.28	1
808.6135122531448	0.3828999999999999	6.295333333333333	1
808.6135122531448	0.3941333333333332	6.2981333333333325	1
808.2264157028693	0.39666666666666656	6.9142666666666655	1
808.2264157028693	0.39666666666666656	6.994800000000001	1
808.2262781286807	0.3909999999999999	6.917999999999998	1
808.2253250796969	0.38429999999999986	6.917999999999998	1
808.2253250796969	0.38946666666666657	6.840533333333333	1
808.1314085295116	0.38696666666666657	6.623066666666667	1
808.1314085295116	0.38383333333333325	6.325866666666667	1
807.8381248857228	0.3838666666666666	6.417466666666667	1
807.8381248857228	0.3968666666666666	6.416	1
807.3568992966995	0.3868666666666666	6.316000000000001	1
807.3567856363509	0.3959333333333332	6.360533333333335	1
807.3567856363509	0.3944666666666666	6.5422666666666665	1
806.9685776225239	0.3894333333333333	7.077333333333333	1
806.9685776225239	0.3894333333333333	6.9036	1
806.1991377430973	0.38939999999999986	6.844666666666665	1
806.1951450223627	0.39366666666666655	6.844666666666665	1
806.1951450223627	0.3902999999999999	6.808533333333333	1
806.008301563812	0.3921666666666666	6.7972	1
806.008301563812	0.3940333333333333	6.788133333333334	1
804.9478634202305	0.3894999999999999	6.58	1
804.9478634202305	0.3827333333333332	6.6808	1
804.8524260966715	0.39553333333333324	6.723199999999999	1
804.8524406179524	0.38826666666666654	6.734533333333333	1
804.8524406179524	0.3799333333333332	6.718533333333332	1
804.56089018282	0.3953999999999999	6.5756	1
804.56089018282	0.39016666666666655	6.296533333333333	1
804.4676925814213	0.39016666666666655	6.3806666666666665	1
804.4676925814213	0.3840333333333332	6.672666666666665	1
804.3737267912154	0.39299999999999985	6.672666666666665	1
804.1257812293443	0.3903333333333332	6.648133333333334	1
804.1257812293443	0.39079999999999987	5.930666666666667	1
804.1257812293443	0.3974666666666666	5.6304	1
804.1257812293443	0.3961333333333332	5.5334666666666665	1
803.2247953524796	0.39529999999999993	3.9317333333333333	1
803.2239263939506	0.39293333333333325	3.7992	1
803.2239263939506	0.39123333333333327	3.5956	1
802.8405320638855	0.3943333333333332	2.5558666666666667	1
802.8405320638855	0.3898999999999999	2.08	1
802.458265354592	0.3898999999999999	1.5535999999999996	1
802.458265354592	0.3936999999999999	0.4114666666666666	1
801.6045819338477	0.38653333333333323	0.4114666666666666	1
801.6037343578633	0.38856666666666656	0.35999999999999993	1
801.6037343578633	0.38849999999999996	0.3601333333333332	1
801.4109692925682	0.3861999999999999	0.2781333333333331	1
801.4109692925682	0.3940333333333332	0.2747999999999999	1
801.2208163967318	0.3922666666666666	0.2226666666666667	1
801.2208163967318	0.3949333333333332	0.19986666666666683	1
801.1282163759672	0.38946666666666657	0.20026666666666684	1
801.1240805410889	0.3867333333333332	0.20000000000000018	1
801.1240805410889	0.3954666666666666	0.17040000000000016	1
800.8414436519822	0.3954666666666666	0.08626666666666674	1
800.8414436519822	0.38946666666666657	0.040000000000000036	1
800.3663840189903	0.3921333333333332	0.040000000000000036	1
800.3652717888169	0.39463333333333317	0.040000000000000036	1
800.3652717888169	0.38246666666666657	0.040000000000000036	1
