wavelength(nm)	flourescence PMT(V)	ti_saph Power (V)	Gain (V)
800.3687670639472	0.38243333333333324	0.040000000000000036	1
800.368879626781	0.39109999999999984	0.040000000000000036	1
800.368879626781	0.3850333333333332	0.040000000000000036	1
800.368879626781	0.3827666666666666	0.05693333333333338	1
800.8422185033018	0.3881999999999999	0.11120000000000009	1
801.129148463914	0.39356666666666656	0.18226666666666683	1
801.129148463914	0.38543333333333324	0.20000000000000018	1
801.2216751196826	0.3930999999999999	0.20106666666666684	1
801.222682302572	0.39286666666666653	0.20026666666666684	1
801.222682302572	0.40109999999999996	0.2529333333333333	1
801.222682302572	0.40109999999999996	0.2801333333333331	1
801.6481423002459	0.39083333333333325	0.32986666666666653	1
801.6020202749603	0.38866666666666655	0.32986666666666653	1
801.6046833603706	0.39439999999999986	0.35999999999999993	1
801.6046833603706	0.38866666666666655	0.35999999999999993	1
802.461825619649	0.3921333333333333	1.101733333333333	1
802.8433147428882	0.3923999999999999	1.5625333333333329	1
802.8433147428882	0.3862999999999999	2.5002666666666666	1
802.8447858539023	0.3887999999999999	2.5210666666666666	1
803.2267187557859	0.3989333333333332	3.795866666666666	1
803.2266746803161	0.3914999999999999	3.9445333333333323	1
803.2266746803161	0.37976666666666653	4.125333333333333	1
803.7029965523919	0.3924999999999999	5.714533333333334	1
803.9929919770286	0.3924999999999999	5.794933333333334	1
803.9524977384176	0.3828666666666666	5.794933333333334	1
803.9524977384176	0.3876666666666665	5.959466666666667	1
804.0872822424295	0.39103333333333323	5.927199999999999	1
804.5116915469854	0.3928333333333332	6.186133333333334	1
804.470298211573	0.3914666666666666	6.4756	1
804.470298211573	0.39663333333333317	6.441866666666667	1
804.5671444788292	0.38843333333333324	6.4337333333333335	1
804.8519770213269	0.38673333333333326	6.310133333333333	1
804.8555408249945	0.3933999999999999	6.595333333333334	1
804.8555408249945	0.3866333333333332	6.5777333333333345	1
804.8537981203947	0.3863666666666666	6.504133333333333	1
804.9480568372045	0.3863666666666666	6.5024	1
804.9480568372045	0.3846333333333332	6.648000000000001	1
805.2406239533318	0.38789999999999986	6.648000000000001	1
806.0098866905876	0.38829999999999987	6.631200000000001	1
806.0097986369328	0.38966666666666655	6.922666666666665	1
806.0097986369328	0.39079999999999987	6.9184	1
806.0097751185964	0.3989666666666666	6.782	1
806.4904073697943	0.39803333333333324	6.716933333333333	1
806.9722878736765	0.3924333333333332	6.884533333333332	1
806.9722878736765	0.38373333333333326	6.7372000000000005	1
806.9722878736765	0.3872333333333332	6.961333333333332	1
807.3552363694706	0.38583333333333325	6.601866666666667	1
807.3552363694706	0.38583333333333325	6.3289333333333335	1
807.3552959990093	0.39229999999999987	6.3340000000000005	1
807.7431325355587	0.39003333333333323	6.3340000000000005	1
808.0351016060234	0.39053333333333323	6.726666666666667	1
808.0351016060234	0.38943333333333324	6.700666666666667	1
808.0368852716879	0.3835999999999999	6.8267999999999995	1
808.0368836928202	0.38409999999999994	6.663466666666666	1
808.1292986212931	0.4009666666666665	6.802	1
808.1292986212931	0.3904999999999999	6.512666666666667	1
808.1292986212931	0.3877999999999999	6.745866666666666	1
808.2300989390284	0.39326666666666654	6.7572	1
808.424354471778	0.3870666666666666	6.723599999999999	1
808.424354471778	0.37996666666666656	6.489066666666668	1
809.4857665075986	0.37996666666666656	6.544133333333334	1
809.4845235827579	0.3844999999999999	6.4812	1
809.449291336228	0.39543333333333325	6.4812	1
809.449291336228	0.38876666666666654	6.455466666666667	1
809.8403145837436	0.3953999999999999	6.5344	1
810.169080953631	0.3875999999999999	6.418666666666668	1
810.169080953631	0.40133333333333326	6.5524000000000004	1
810.6536699588788	0.38906666666666656	6.689333333333333	1
810.653644711462	0.3924666666666666	6.898533333333333	1
810.6536528266154	0.3877333333333332	6.916266666666667	1
810.6536528266154	0.38943333333333324	6.913733333333333	1
810.7482772151625	0.3829999999999999	6.797866666666667	1
811.3399996701779	0.3829999999999999	6.743199999999999	1
811.340024728285	0.38609999999999994	6.690933333333334	1
811.340024728285	0.38643333333333324	6.690933333333334	1
811.3401875801977	0.3771666666666666	6.663466666666666	1
811.5301951609276	0.3798999999999999	6.352533333333334	1
811.7833357131624	0.3923999999999999	6.120533333333333	1
811.7833357131624	0.3866333333333332	6.164666666666667	1
811.7821023387387	0.3927999999999999	6.351733333333334	1
811.7821819610723	0.3871999999999999	6.2674666666666665	1
811.7821819610723	0.3805333333333332	6.3084	1
811.824373614787	0.39153333333333323	6.371733333333333	1
812.7050156645952	0.38746666666666657	6.546666666666667	1
812.7050276191101	0.38746666666666657	6.594	1
812.7050276191101	0.3859999999999999	6.594	1
813.0528434467111	0.3875666666666666	6.5228	1
813.0527108466081	0.37633333333333324	6.4488	1
813.1020313266097	0.3954999999999999	6.265466666666667	1
813.1020313266097	0.39293333333333325	6.179466666666667	1
813.4943946642818	0.3838666666666666	6.229066666666667	1
813.9797999221067	0.39463333333333317	6.406533333333334	1
813.9798647006812	0.3858999999999999	6.479733333333334	1
813.9798647006812	0.3888666666666666	6.472533333333334	1
814.077245834895	0.38193333333333324	6.396800000000001	1
814.3750424793972	0.39203333333333323	6.2030666666666665	1
814.3750424793972	0.39203333333333323	6.645066666666667	1
814.7686343543342	0.38803333333333323	6.645066666666667	1
814.7686820114228	0.40433333333333316	6.61	1
815.1152407544637	0.3879999999999999	6.599733333333334	1
815.1152407544637	0.3821666666666666	6.596400000000001	1
815.1165903666239	0.39206666666666656	6.588666666666668	1
815.2622407757049	0.39253333333333323	6.551333333333334	1
815.2623528939658	0.39093333333333324	6.499200000000001	1
815.2623528939658	0.3911999999999999	6.498799999999999	1
815.2623619031111	0.39603333333333324	6.492800000000001	1
815.5591368826389	0.3823999999999999	6.436666666666667	1
815.5591368826389	0.38779999999999987	6.353200000000001	1
816.1478841490788	0.38779999999999987	6.293866666666666	1
816.5419646325767	0.39093333333333324	6.293866666666666	1
816.8431464067143	0.39116666666666655	6.3696	1
816.8431464067143	0.38696666666666657	6.579200000000001	1
816.8413443650765	0.38376666666666653	6.541333333333333	1
817.3355273282643	0.3922666666666666	6.451466666666667	1
817.5888103439091	0.38796666666666657	6.481733333333334	1
817.5888103439091	0.3896999999999999	6.450533333333334	1
817.5918621614614	0.38429999999999986	6.410800000000001	1
817.73394288595	0.3961333333333332	6.283333333333333	1
818.6270458473513	0.38819999999999993	6.293066666666667	1
818.6270458473513	0.3867333333333332	6.228133333333333	1
818.6270304201855	0.3867333333333332	6.280133333333334	1
818.6270609873789	0.3916999999999999	6.280133333333334	1
818.6270609873789	0.3932333333333332	6.400933333333334	1
818.6270672200178	0.38996666666666663	6.428666666666667	1
818.6270489651014	0.38693333333333324	6.326933333333333	1
818.9243618168375	0.3883999999999999	6.373333333333333	1
818.9243618168375	0.39123333333333327	6.342000000000001	1
819.7268518670887	0.3903999999999999	6.387066666666667	1
819.820079891447	0.39583333333333326	6.552533333333334	1
820.6190813104372	0.3789333333333333	6.662266666666667	1
820.6190813104372	0.38623333333333326	6.6696	1
820.6188547733677	0.38896666666666657	6.790400000000001	1
820.8156144163125	0.38896666666666657	6.830933333333332	1
820.8156144163125	0.38406666666666656	6.970933333333332	1
821.0183271712289	0.39526666666666654	6.970933333333332	1
821.1194165281039	0.3916999999999999	6.940266666666666	1
821.1193644695585	0.38396666666666657	6.968666666666667	1
821.1193644695585	0.3975666666666665	7.014533333333333	1
821.5202869440191	0.3909999999999999	6.8424	1
821.8176578740465	0.39649999999999985	6.909599999999998	1
821.8739062530369	0.3845999999999999	6.861466666666665	1
821.8739062530369	0.38413333333333327	6.8848	1
822.2241460266029	0.3841999999999999	7.006266666666667	1
822.2750459170354	0.3876666666666666	7.1004	1
822.2750459170354	0.3876666666666666	7.1491999999999996	1
822.2761296750069	0.3916333333333333	7.170533333333333	1
822.2754406794807	0.38233333333333325	7.170533333333333	1
822.7205711943712	0.38196666666666657	7.164666666666665	1
822.7205711943712	0.39003333333333323	7.2352	1
822.7205068775855	0.38573333333333326	7.274799999999999	1
823.5243628693008	0.39303333333333323	7.282	1
823.7270017980493	0.39406666666666657	7.346000000000001	1
823.7270017980493	0.3827999999999999	7.166	1
824.030609760085	0.3941999999999999	7.195866666666665	1
824.385293397288	0.39639999999999986	7.281866666666667	1
824.385293397288	0.3946999999999999	7.042799999999999	1
824.3863718766087	0.3946999999999999	6.867066666666666	1
824.4328571237187	0.38953333333333323	6.696533333333334	1
824.7884314866643	0.3777666666666666	6.696533333333334	1
824.7884314866643	0.38573333333333326	7.023999999999999	1
824.8362260042536	0.3859999999999999	7.504266666666667	1
825.6006179582001	0.3919333333333333	7.588266666666667	1
825.5991694181239	0.3927333333333332	7.3152	1
825.5991694181239	0.3840333333333332	7.154266666666666	1
825.5545593688224	0.38633333333333325	7.039866666666667	1
825.7963744454196	0.3900999999999999	7.062666666666666	1
825.7963744454196	0.39043333333333324	7.375866666666664	1
825.800112024378	0.38233333333333325	7.414133333333334	1
826.1031151637338	0.38233333333333325	7.363333333333333	1
826.1031151637338	0.39059999999999995	7.419866666666665	1
826.1031151637338	0.3798666666666666	7.419866666666665	1
826.1033951238121	0.38806666666666656	7.434666666666666	1
826.9147346498443	0.3944999999999999	7.487466666666666	1
827.0165883400042	0.39829999999999993	7.372933333333332	1
827.0165883400042	0.39326666666666654	7.174933333333334	1
827.0165840141085	0.3942666666666666	7.152533333333334	1
827.8270088547736	0.39656666666666657	7.241333333333333	1
827.8270088547736	0.39529999999999993	7.244533333333332	1
827.8286613036532	0.3943666666666666	7.239866666666667	1
827.8298002115324	0.3944333333333333	7.236133333333334	1
828.0302532698452	0.3944333333333333	7.219333333333334	1
828.0302532698452	0.3961333333333332	7.2467999999999995	1
828.3385839610112	0.39836666666666654	7.2467999999999995	1
828.6419016498305	0.3896333333333332	7.258666666666665	1
828.6421482986922	0.39206666666666656	7.331733333333333	1
828.6421482986922	0.3909666666666665	7.3326666666666656	1
828.642802693131	0.3914333333333332	7.3486666666666665	1
829.2538671750093	0.3893666666666666	7.547466666666666	1
829.4602500646708	0.3970999999999999	7.4758666666666675	1
829.4602500646708	0.38756666666666656	7.414133333333333	1
829.5594622802698	0.39379999999999993	7.391866666666666	1
829.4601974673286	0.39849999999999985	7.546266666666667	1
829.8664024445039	0.39849999999999985	7.642933333333332	1
829.8664024445039	0.3975999999999999	7.449866666666667	1
829.9700313330516	0.4057666666666666	7.449866666666667	1
830.3790150800008	0.3945333333333332	7.229066666666666	1
830.3790150800008	0.3891333333333333	7.494933333333333	1
830.3789721342462	0.3931666666666666	7.637333333333332	1
830.5830330745646	0.3936999999999999	7.772666666666667	1
830.8392250840634	0.3821666666666666	7.5818666666666665	1
830.8392250840634	0.39566666666666656	7.535866666666666	1
831.2995349196641	0.3942999999999999	7.463466666666666	1
831.7116409336257	0.39879999999999993	7.307333333333332	1
831.7098577121571	0.40486666666666654	7.39	1
831.7098577121571	0.3878333333333332	7.406799999999999	1
831.709851974438	0.3878333333333332	7.5168	1
831.9165714244118	0.38896666666666657	7.5168	1
831.9165714244118	0.4035999999999999	7.511199999999999	1
832.5312995961893	0.3882333333333332	7.5935999999999995	1
832.5312995961893	0.3998333333333332	7.490266666666667	1
833.0502606828782	0.4012999999999999	7.423333333333333	1
833.0502606828782	0.39166666666666655	7.445199999999998	1
832.9479339978934	0.3974333333333332	7.431733333333332	1
833.3577868635331	0.39669999999999994	7.358799999999998	1
833.4061691628172	0.39293333333333325	7.3625333333333325	1
833.4061691628172	0.38769999999999993	7.288799999999999	1
833.8732120483683	0.39593333333333325	7.349199999999999	1
833.8731869989875	0.39593333333333325	7.2964	1
833.9746192838127	0.40529999999999994	7.2964	1
833.9746192838127	0.3956999999999999	7.294	1
834.3383924068175	0.39336666666666653	7.408133333333332	1
834.3385130101201	0.39619999999999983	7.4593333333333325	1
834.6982170018182	0.3902999999999999	7.440266666666666	1
834.6982170018182	0.3949666666666666	7.346266666666667	1
835.0625941299693	0.39899999999999985	7.361466666666665	1
835.267530084597	0.4087999999999999	7.364266666666666	1
835.267530084597	0.40846666666666653	7.346666666666667	1
835.4212937004747	0.4119666666666666	7.290933333333332	1
835.6330194806911	0.4119666666666666	7.268933333333333	1
835.7891617563215	0.4121999999999999	7.243333333333333	1
835.7891617563215	0.42596666666666655	7.243333333333333	1
836.0958391102181	0.4323333333333332	7.178133333333333	1
836.8226219067977	0.4442666666666666	7.087866666666667	1
836.7743958231562	0.45646666666666647	7.356000000000001	1
836.7743958231562	0.49039999999999995	7.371066666666666	1
837.0736307931744	0.4958333333333331	7.4378666666666655	1
837.0341898849061	0.49346666666666655	7.485866666666667	1
837.2391176250418	0.5107333333333333	7.514399999999999	1
837.2391176250418	0.5212666666666665	7.349866666666667	1
837.2431606041448	0.5262333333333332	7.193866666666666	1
837.7620633689523	0.5263333333333332	7.377599999999999	1
837.7620633689523	0.5263333333333332	7.110933333333333	1
837.7617229772547	0.5502999999999999	7.051333333333334	1
837.7631768159665	0.5538666666666665	7.051333333333334	1
838.1785284919405	0.5795333333333332	7.104933333333333	1
838.1785284919405	0.6288999999999999	7.602933333333332	1
838.22710843993	0.6376	7.671066666666667	1
838.4919968610609	0.6405	7.582533333333332	1
839.1165371678875	0.6794666666666666	7.5877333333333326	1
839.1165371678875	0.7343333333333332	7.542133333333331	1
839.1170265823374	0.7333333333333333	7.484933333333333	1
839.1162486950994	0.7507333333333333	7.482533333333334	1
839.4330255509201	0.7544666666666666	7.355733333333332	1
839.4330255509201	0.7544666666666666	7.414666666666665	1
839.5372675061657	0.7850333333333332	7.400533333333333	1
839.8536842008195	0.7802999999999999	7.400533333333333	1
839.8536842008195	0.8299333333333332	7.428	1
840.3719772826761	0.9436333333333332	7.402133333333333	1
840.6874051734945	0.9885999999999999	7.431333333333332	1
840.9478728670936	1.0287333333333333	7.462400000000001	1
840.9478728670936	1.0644	7.450666666666666	1
841.0027440406674	1.1140333333333332	7.4159999999999995	1
841.0026911511901	1.1314999999999997	7.449733333333332	1
841.002890862973	1.1199333333333334	7.461866666666665	1
841.002890862973	1.1565666666666665	7.342933333333334	1
841.3176349681496	1.1565666666666665	7.136933333333333	1
841.3176946236542	1.1753666666666667	7.0974666666666675	1
841.3176946236542	1.1833666666666667	7.0974666666666675	1
841.5297502048968	1.2107666666666663	7.031199999999999	1
841.7379463307412	1.2605333333333333	7.074133333333332	1
841.738249795485	1.2769333333333333	6.8864	1
841.738249795485	1.2899333333333332	6.778266666666666	1
842.3730046886011	1.4357333333333333	6.714799999999999	1
842.3716473377316	1.5740999999999996	6.951199999999999	1
842.6891387318782	1.7153333333333334	7.146133333333334	1
842.6891387318782	1.8239333333333332	7.309066666666666	1
843.1568314009834	1.9606333333333332	7.334799999999999	1
843.2155575168205	2.0058000000000002	7.277333333333333	0.40000000000000013
843.4283526328055	1.7713666666666665	7.383333333333334	1
843.4285066929658	1.1389666666666665	7.310266666666666	1
843.9542367373814	1.7051666666666667	7.1948	1
844.5853628777327	2.108433333333333	5.5416	0.40000000000000013
844.8012956144552	1.1453666666666666	3.8294666666666672	1
844.8012956144552	0.9530333333333332	3.092133333333334	1
844.9041220790122	1.4714999999999998	2.9948	1
844.9063431340999	1.4714999999999998	2.610933333333333	1
842.8966302004739	1.8267333333333333	7.1529333333333325	1
842.8966302004739	1.725333333333333	7.097599999999999	1
842.5837920728144	1.6523333333333332	6.9782666666666655	1
842.1597145752379	1.6523333333333332	6.683333333333333	1
841.8427180574878	1.4343	6.730133333333333	1
841.8427180574878	1.4288333333333332	6.730133333333333	1
841.8433257744115	1.3512666666666666	7.067866666666667	1
841.6350533469563	1.3651999999999997	7.2506666666666675	1
841.6350533469563	1.2807	7.100133333333333	1
841.526842490681	1.2249333333333334	7.044666666666667	1
841.3182653648133	1.1876999999999998	7.045866666666668	1
841.3188257391506	1.1619666666666664	6.932533333333334	1
841.3188257391506	1.1599666666666666	6.9235999999999995	1
841.001377914794	1.0990666666666664	7.2296000000000005	1
841.0456762412099	1.0921999999999998	7.320399999999999	1
840.846122952051	1.0921999999999998	7.403066666666667	1
840.846122952051	1.0803666666666667	7.403066666666667	1
840.690164263167	1.0822333333333332	7.469600000000001	1
840.423300688328	1.0479666666666667	7.585066666666666	1
840.1103976295216	0.9631999999999997	7.438666666666668	1
840.1103976295216	0.9455666666666666	7.4876	1
839.5348768811263	0.8107333333333332	7.559066666666667	1
839.5336399726734	0.8056333333333332	7.549466666666667	1
839.1173402023938	0.7813666666666665	7.421199999999999	1
839.1173402023938	0.7763666666666665	7.413866666666666	1
839.117277543357	0.7545333333333332	7.3461333333333325	1
838.699076282112	0.7209666666666665	7.3736	1
838.699076282112	0.7209666666666665	7.557333333333332	1
838.6990032764031	0.6867666666666665	7.544266666666666	1
838.1801084788677	0.6962999999999998	7.544266666666666	1
838.1790429374721	0.6382333333333332	7.496266666666667	1
838.1790429374721	0.6289999999999999	7.532933333333332	1
837.9650350930356	0.6115333333333333	7.417066666666666	1
837.8125244298869	0.5771333333333333	7.3452	1
837.3439423848112	0.5463666666666666	7.438533333333331	1
837.3439423848112	0.5413999999999999	7.465866666666666	1
837.1367808711556	0.5240333333333332	7.392933333333334	1
837.0315690891816	0.5023999999999998	7.3755999999999995	1
837.0315690891816	0.5200666666666666	7.399066666666666	1
837.136802530503	0.5216333333333333	7.3988	1
836.8235655384244	0.5216333333333333	7.3816	1
836.7181022275411	0.49393333333333317	7.288133333333332	1
836.7181022275411	0.48659999999999987	7.288133333333332	1
836.5112725701078	0.4802999999999999	7.295066666666667	1
836.1928443736177	0.44429999999999986	7.466266666666666	1
835.6306146210994	0.4496333333333333	7.517466666666666	1
835.6306146210994	0.42919999999999986	7.552533333333333	1
835.6290630288229	0.4230333333333332	7.3704	1
835.424551216201	0.4143999999999998	7.284799999999999	1
835.4214572836613	0.41576666666666656	7.132266666666666	1
835.4214572836613	0.41103333333333325	7.143733333333333	1
834.8535582621864	0.3976999999999999	7.218266666666667	1
834.7474126484044	0.3976999999999999	7.349999999999999	1
834.7474126484044	0.4097333333333332	7.400933333333333	1
834.3367888561162	0.4070999999999999	7.400933333333333	1
834.0272552386497	0.38566666666666655	7.550133333333333	1
833.875102172471	0.39609999999999984	7.575866666666666	1
833.875102172471	0.39886666666666654	7.5894666666666675	1
833.7162853184118	0.39843333333333325	7.520133333333333	1
833.4600929957732	0.3932333333333332	7.5418666666666665	1
833.4030783507517	0.3991333333333332	7.378266666666665	1
833.4030783507517	0.3893666666666666	7.475333333333332	1
833.3030919406363	0.3994666666666666	7.468666666666667	1
833.0491679633661	0.4019666666666666	7.3868	1
833.048773391333	0.4019666666666666	7.377066666666666	1
833.048773391333	0.3827666666666666	7.3187999999999995	1
832.5344135375443	0.39416666666666655	7.3187999999999995	1
832.1725231656851	0.40163333333333323	7.431599999999999	1
832.1725231656851	0.4022333333333332	7.459866666666667	1
832.1233846246433	0.39086666666666653	7.322399999999999	1
831.7106105529319	0.3904666666666666	7.568266666666665	1
831.7106745283498	0.3964666666666666	7.657866666666665	1
831.7106745283498	0.3833999999999999	7.6596	1
830.4057148788556	0.4055666666666666	7.587866666666666	1
830.8872022071707	0.4009666666666665	7.459599999999999	1
830.8925377712543	0.3914333333333332	7.688399999999999	1
830.8925377712543	0.39229999999999987	7.7030666666666665	1
830.4824154391505	0.39229999999999987	7.302933333333334	1
830.3788129515312	0.4000999999999999	7.302933333333334	1
830.3788129515312	0.3911999999999999	7.375199999999999	1
830.3788142038119	0.3780999999999999	7.6004	1
829.8650192718715	0.3931999999999998	7.471599999999999	1
829.8665127401491	0.3896333333333332	7.6568	1
829.8665127401491	0.38673333333333326	7.87	1
829.4609404890497	0.3972999999999999	7.890266666666666	1
829.4572120726585	0.3876333333333332	7.403066666666666	1
829.4592248543071	0.3878333333333332	7.502533333333332	1
829.4592248543071	0.39269999999999994	7.484399999999999	1
829.2537382644714	0.3900999999999999	7.445599999999998	1
828.642992103588	0.3900999999999999	7.333733333333333	1
828.6403069127978	0.38533333333333325	7.333733333333333	1
828.6403069127978	0.3902333333333332	7.347999999999999	1
828.2384561522291	0.39309999999999995	7.433599999999999	1
828.1350274043599	0.3870999999999999	7.5356	1
828.1350274043599	0.39689999999999986	7.525333333333333	1
828.0355596084006	0.38666666666666655	7.4513333333333325	1
827.8297474418191	0.3943999999999999	7.397333333333333	1
827.7847001883093	0.3999999999999999	7.3717333333333315	1
827.7847001883093	0.39723333333333327	7.444399999999999	1
827.3218303905751	0.4012333333333332	7.299199999999999	1
827.0147159772979	0.38583333333333325	7.179733333333334	1
827.0147159772979	0.38583333333333325	7.139200000000001	1
827.0147159772979	0.3938666666666666	7.192133333333333	1
826.8142561751165	0.39289999999999986	7.192133333333333	1
826.1033287152735	0.38406666666666656	7.363466666666667	1
826.1037129213363	0.3970333333333332	7.262000000000001	1
826.1037129213363	0.38766666666666655	7.282533333333332	1
826.1043347016677	0.40433333333333327	7.263466666666667	1
825.698748911036	0.39716666666666656	7.2664	1
825.698748911036	0.38593333333333324	7.118533333333333	1
825.7401126791965	0.39133333333333326	7.125866666666666	1
825.3411512373211	0.38893333333333324	7.234933333333335	1
825.2912216289147	0.3921666666666666	7.301866666666665	1
825.2912216289147	0.3921666666666666	7.084133333333333	1
824.7903368819913	0.3887999999999999	7.055999999999999	1
824.7861116190805	0.3867333333333332	7.055999999999999	1
824.3878932319863	0.3837999999999999	7.112933333333333	1
824.3878932319863	0.39003333333333323	7.0687999999999995	1
824.3850600184954	0.38793333333333324	7.046266666666667	1
824.0278825118912	0.39266666666666655	7.103999999999999	1
824.0278825118912	0.38866666666666655	7.376533333333332	1
824.0278825118912	0.3877333333333332	7.5468	1
823.5271066294112	0.37693333333333323	7.4796000000000005	1
823.5270966426067	0.38223333333333326	7.320133333333334	1
822.7241948788879	0.3873999999999999	7.149333333333334	1
822.7241948788879	0.3873999999999999	7.0464	1
820.6265703673862	0.39166666666666655	6.957466666666666	1
822.27611209196	0.3867999999999999	6.957466666666666	1
822.27611209196	0.39006666666666656	7.111866666666667	1
822.2750985277395	0.3938999999999999	7.196133333333334	1
822.1218065560771	0.39393333333333325	7.163466666666666	1
821.8733360968014	0.3954666666666666	7.057599999999999	1
821.8733360968014	0.3926333333333332	6.976666666666667	1
821.8733357535848	0.3974666666666666	6.833733333333333	1
821.1195524012213	0.3779999999999999	6.906000000000001	1
821.1180470316644	0.3823999999999999	6.992800000000001	1
821.1180470316644	0.38876666666666654	6.9996	1
821.0214952353355	0.3934333333333332	6.927599999999999	1
820.8158947043529	0.3934333333333332	6.943333333333333	1
820.618180831751	0.3833666666666666	6.752133333333333	1
820.618180831751	0.38579999999999987	6.752133333333333	1
820.5218379372071	0.3833666666666665	6.6911999999999985	1
819.8197099980383	0.3979666666666665	6.778133333333335	1
819.8197099980383	0.3895999999999999	6.8428	1
819.8190691691813	0.3966333333333332	6.775066666666667	1
819.8190691691813	0.3800666666666666	6.5388	1
818.7224302828389	0.3906666666666666	6.521999999999999	1
818.7224302828389	0.3911999999999999	6.5548	1
818.6227089376129	0.38923333333333315	6.379200000000001	1
818.62698496791	0.38396666666666657	6.408666666666668	1
818.6260656065689	0.38396666666666657	6.378133333333334	1
818.6260656065689	0.3834999999999999	6.358933333333334	1
817.7330822454211	0.38903333333333323	6.358933333333334	1
817.7322399770632	0.39306666666666656	6.28	1
817.6366511976761	0.38776666666666654	6.328133333333334	1
817.6366511976761	0.39026666666666654	6.438000000000001	1
817.3354097502469	0.3797333333333332	6.3648	1
817.3389784430472	0.38846666666666657	6.3648	1
816.8421391461318	0.38873333333333326	6.431866666666667	1
816.8421391461318	0.39353333333333324	6.670666666666666	1
816.8402176694582	0.3892333333333332	6.721333333333333	1
816.3014251269965	0.3891333333333332	6.527866666666667	1
816.3014251269965	0.3891333333333332	6.180533333333333	1
815.4140468546512	0.38499999999999984	6.2569333333333335	1
815.2612238539738	0.3873666666666665	6.2569333333333335	1
815.2613819125019	0.3949333333333332	6.297733333333334	1
815.2613819125019	0.39913333333333323	6.4194666666666675	1
815.2623054913937	0.38766666666666655	6.582133333333334	1
815.1206875291876	0.39526666666666654	6.685333333333333	1
815.1142611732384	0.3926333333333332	6.7452000000000005	1
815.1142611732384	0.3886333333333333	6.753066666666667	1
814.769587840316	0.3907666666666666	6.676933333333333	1
814.770477560857	0.3856999999999999	6.590933333333332	1
814.2306615631923	0.4000999999999999	6.6424	1
814.2306615631923	0.4000999999999999	6.133733333333333	1
813.9817796807778	0.3816333333333332	6.1892	1
813.9813188839234	0.3904999999999999	6.1892	1
813.9813188839234	0.38596666666666657	6.44	1
813.9811398937219	0.3760666666666666	6.4876000000000005	1
813.491101436945	0.38649999999999984	6.471333333333334	1
813.1003135824777	0.3866999999999999	6.293866666666666	1
813.1003135824777	0.3824333333333332	6.288933333333333	1
813.1003009348319	0.3865333333333333	6.357333333333333	1
813.0539998820067	0.3824999999999999	6.556933333333333	1
812.705957185837	0.37746666666666656	6.529866666666667	1
812.705957185837	0.38826666666666654	6.455466666666667	1
811.8261139523195	0.38826666666666654	6.499733333333333	1
811.8256995642067	0.3767999999999999	6.459066666666667	1
811.8290375528802	0.3843666666666666	6.459066666666667	1
811.8290375528802	0.3843666666666666	6.438266666666666	1
811.7823395228185	0.39609999999999995	6.4665333333333335	1
811.5301417172019	0.39579999999999993	6.1484000000000005	1
811.3909823288345	0.38846666666666657	6.105600000000001	1
811.3909823288345	0.3850999999999999	6.149466666666667	1
811.3904345665613	0.3827666666666666	6.356266666666667	1
811.3387540477223	0.3965999999999999	6.4732	1
811.3387540477223	0.3903666666666666	6.6761333333333335	1
810.6546409350847	0.3795333333333332	6.683599999999999	1
810.654561663399	0.3795333333333332	6.8072	1
810.6536344616947	0.3874999999999999	6.7783999999999995	1
810.6536344616947	0.39956666666666657	6.7783999999999995	1
810.2638487364471	0.3838666666666666	6.697733333333332	1
810.2629537706905	0.39093333333333324	6.2684	1
809.7814168737335	0.38946666666666657	6.2028	1
809.7814168737335	0.39336666666666653	6.401200000000001	1
809.3890889974258	0.3879999999999999	6.4776	1
809.393175738513	0.38546666666666657	6.433466666666668	1
809.393175738513	0.3942999999999999	6.474933333333333	1
808.6142333403893	0.3826333333333332	6.474000000000001	1
808.229024388069	0.3914333333333332	6.744666666666667	1
808.2290205333122	0.3851666666666666	6.8936	1
808.2290205333122	0.3851666666666666	6.905333333333331	1
808.1308318741989	0.3791666666666666	6.651066666666666	1
808.1311643452191	0.3831333333333332	6.651066666666666	1
808.1299415934681	0.3816999999999999	6.287599999999999	1
808.1299415934681	0.3934666666666665	6.3053333333333335	1
807.7420945956638	0.3891333333333333	6.824399999999999	1
807.3606054097646	0.3946999999999999	6.8529333333333335	1
807.3595937740412	0.38116666666666654	6.3431999999999995	1
807.3595937740412	0.38859999999999983	6.298933333333332	1
806.9686079640127	0.39616666666666656	6.7059999999999995	1
806.8763716460021	0.3917333333333332	6.6251999999999995	1
806.8763716460021	0.3851333333333332	6.478133333333333	1
806.2001242785135	0.3851333333333332	6.809333333333333	1
806.009695450297	0.3868666666666666	6.814133333333334	1
806.0097115307641	0.3825999999999999	6.814133333333334	1
806.0097115307641	0.3933999999999999	6.8212	1
806.0074065382152	0.38906666666666656	6.869199999999999	1
804.9505273687918	0.3888666666666666	6.529466666666667	1
804.8558998830682	0.3969999999999999	6.588533333333334	1
804.8558998830682	0.3896999999999999	6.597600000000001	1
804.8558643090025	0.3898999999999999	6.5676000000000005	1
804.856013605808	0.38333333333333325	6.5287999999999995	1
804.856013605808	0.38596666666666657	6.5668	1
804.4706981485928	0.3886999999999999	6.302533333333334	1
804.4692340590575	0.3886999999999999	6.5283999999999995	1
804.3763475947753	0.39059999999999995	6.672	1
804.3763475947753	0.38223333333333326	6.672	1
803.9917654336797	0.38933333333333325	6.720266666666666	1
803.9917792080253	0.3956333333333332	5.967066666666667	1
803.7048289488363	0.3890333333333333	5.7742666666666675	1
803.7048289488363	0.38579999999999987	5.380533333333333	1
803.2275254109891	0.38956666666666656	5.257466666666667	1
803.2273925409124	0.38656666666666656	3.697866666666666	1
803.2273925409124	0.3893666666666666	3.6664000000000003	1
802.8416165642883	0.3846999999999999	2.58	1
802.7492111138762	0.3874999999999999	2.4573333333333336	1
802.7492111138762	0.3874999999999999	1.9502666666666664	1
802.7492111138762	0.38903333333333323	1.4926666666666664	1
801.7009999431647	0.3915333333333333	1.4926666666666664	1
801.6046914205201	0.39469999999999994	0.4158666666666666	1
801.4116883380234	0.3843666666666666	0.3694666666666666	1
801.4116883380234	0.3862999999999999	0.36106666666666654	1
801.4119811616777	0.38323333333333326	0.28279999999999983	1
801.2233251262937	0.3878666666666666	0.2803999999999998	1
801.2233251262937	0.3906666666666666	0.20146666666666682	1
801.222023374102	0.38923333333333326	0.20066666666666683	1
801.2228906112546	0.3951333333333332	0.20066666666666683	1
801.1289726016728	0.3865333333333333	0.19973333333333354	1
801.1289726016728	0.3865333333333333	0.19946666666666688	1
800.8429730145208	0.3913666666666666	0.10893333333333342	1
800.7494568575695	0.39276666666666654	0.10893333333333342	1
800.3684478950554	0.3950333333333332	0.07280000000000006	1
800.3684478950554	0.3866333333333333	0.040000000000000036	1
800.3684912297256	0.3873999999999999	0.040000000000000036	1
