wavelength(nm)	flourescence PMT(V)	ti_saph Power (V)	Gain (V)
800.4565893050644	0.3882999999999999	-0.03933333333333337	1
800.4565893050644	0.38583333333333325	-0.03960000000000003	1
801.1240092994778	0.3838666666666666	-0.03973333333333337	1
801.1240092994778	0.37809999999999994	-0.03960000000000003	1
801.1240092994778	0.3883666666666666	-0.040000000000000036	1
801.124004945499	0.3883666666666666	-0.0394666666666667	1
801.124004945499	0.4007999999999999	-0.03920000000000003	1
801.219586893913	0.3899666666666666	-0.03920000000000003	1
801.219586893913	0.38829999999999987	-0.03960000000000003	1
801.2185518913647	0.38846666666666657	-0.03960000000000003	1
801.2185518913647	0.3823999999999999	-0.03933333333333337	1
801.5981651479815	0.3953666666666666	-0.03960000000000003	1
801.5981651479815	0.3891999999999999	-0.03960000000000003	1
801.598160874272	0.37906666666666655	-0.03893333333333337	1
801.598160874272	0.3945999999999999	-0.0394666666666667	1
802.4542832767571	0.37536666666666657	-0.0398666666666667	1
802.4542832767571	0.3823666666666666	-0.03973333333333337	1
802.9348625279267	0.3823666666666666	-0.03933333333333337	1
802.9348625279267	0.38556666666666656	-0.03973333333333337	1
803.2208807785867	0.3969999999999999	-0.03973333333333337	1
803.2208807785867	0.3824999999999999	-0.0398666666666667	1
803.6987141348957	0.39576666666666654	-0.0394666666666667	1
803.6987141348957	0.3865333333333333	-0.03933333333333337	1
804.0828406301412	0.38576666666666654	-0.03933333333333337	1
804.0828406301412	0.37806666666666655	-0.03973333333333337	1
804.3726735800522	0.3890999999999999	-0.03920000000000003	1
804.3726735800522	0.3805999999999999	-0.03893333333333337	1
804.4678122096218	0.38089999999999996	-0.03973333333333337	1
804.4678122096218	0.38803333333333323	-0.0394666666666667	1
804.5613822438197	0.38803333333333323	-0.03960000000000003	1
804.5613822438197	0.3872666666666666	-0.038800000000000036	1
804.5613822438197	0.3828666666666666	-0.038800000000000036	1
804.8493708587954	0.3924666666666666	-0.03960000000000003	1
804.8493708587954	0.3956333333333332	-0.0390666666666667	1
804.9447741784871	0.3914333333333332	-0.0398666666666667	1
804.9447741784871	0.3825666666666666	-0.040000000000000036	1
804.9447711599205	0.38796666666666657	-0.03933333333333337	1
804.9447711599205	0.3835999999999999	-0.0398666666666667	1
806.0056189076041	0.38113333333333327	-0.0390666666666667	1
806.0056189076041	0.38873333333333326	-0.0394666666666667	1
806.0036744481848	0.3807666666666666	-0.03933333333333337	1
806.0036744481848	0.3807666666666666	-0.03960000000000003	1
806.5793845426833	0.38323333333333326	-0.03920000000000003	1
806.5793845426833	0.3881999999999999	-0.03920000000000003	1
806.9665404012061	0.3903333333333332	-0.03933333333333337	1
806.9665404012061	0.37646666666666656	-0.040000000000000036	1
807.3527740218786	0.38556666666666656	-0.0394666666666667	1
807.3527740218786	0.3799999999999999	-0.03920000000000003	1
807.7388484170809	0.3921999999999999	-0.0394666666666667	1
807.7388484170809	0.37703333333333316	-0.03973333333333337	1
808.0334813017233	0.37969999999999987	-0.03920000000000003	1
808.0334813017233	0.39043333333333324	-0.03973333333333337	1
808.2232494421435	0.39043333333333324	-0.040000000000000036	1
808.2232494421435	0.38256666666666655	-0.0394666666666667	1
808.2232354831117	0.3878999999999999	-0.0394666666666667	1
808.2232354831117	0.38119999999999993	-0.0398666666666667	1
808.4156528803948	0.3797999999999999	-0.040000000000000036	1
808.4156528803948	0.38333333333333325	-0.03920000000000003	1
808.4156528803948	0.38519999999999993	-0.03973333333333337	1
809.3876583836106	0.3847999999999999	-0.0398666666666667	1
809.3876583836106	0.3847999999999999	-0.03960000000000003	1
809.388630177609	0.39003333333333323	-0.03920000000000003	1
809.388630177609	0.3896333333333332	-0.03933333333333337	1
809.7751161001688	0.3892333333333332	-0.038800000000000036	1
809.7751161001688	0.39376666666666654	-0.03973333333333337	1
810.2604210134737	0.39376666666666654	-0.0394666666666667	1
810.2604210134737	0.3848333333333332	-0.0394666666666667	1
810.6501468590865	0.3830333333333332	-0.0394666666666667	1
810.6501468590865	0.3861999999999999	-0.0386666666666667	1
811.1366188475298	0.3778999999999999	-0.0398666666666667	1
811.1366188475298	0.3972333333333332	-0.03920000000000003	1
811.3349777290287	0.38683333333333325	-0.03933333333333337	1
811.3349777290287	0.38553333333333323	-0.03973333333333337	1
811.5256018519262	0.3932333333333332	-0.0394666666666667	1
811.5256018519262	0.39226666666666654	-0.03920000000000003	1
811.5255586417363	0.3919999999999999	-0.0398666666666667	1
811.5255586417363	0.3858999999999999	-0.03973333333333337	1
811.916372262069	0.3858999999999999	-0.03960000000000003	1
811.916372262069	0.3850999999999999	-0.03973333333333337	1
811.9205433312862	0.3882333333333332	-0.03973333333333337	1
811.9205433312862	0.38393333333333324	-0.03920000000000003	1
812.0142575222108	0.3848333333333332	-0.0394666666666667	1
812.0142575222108	0.3931666666666666	-0.0390666666666667	1
812.8001740943074	0.3888999999999999	-0.0394666666666667	1
812.8001740943074	0.38666666666666655	-0.03960000000000003	1
813.0957316533837	0.3875666666666666	-0.03960000000000003	1
813.0957316533837	0.38299999999999995	-0.03960000000000003	1
813.0957316533837	0.38083333333333325	-0.03933333333333337	1
813.0955138648168	0.38033333333333325	-0.03973333333333337	1
813.0955138648168	0.38033333333333325	-0.03920000000000003	1
813.9775186425757	0.38956666666666656	-0.03973333333333337	1
813.9775186425757	0.38803333333333323	-0.03973333333333337	1
813.9773895553554	0.3751999999999999	-0.0398666666666667	1
813.9773895553554	0.39193333333333324	-0.0390666666666667	1
814.5216878507506	0.3913999999999999	-0.0394666666666667	1
814.5216878507506	0.3913666666666666	-0.03920000000000003	1
814.7637500720524	0.3772999999999999	-0.0394666666666667	1
814.7637500720524	0.38766666666666655	-0.03973333333333337	1
815.1137196942266	0.3887999999999999	-0.03920000000000003	1
815.1137196942266	0.3916999999999999	-0.03960000000000003	1
815.256611694217	0.3898333333333332	-0.03920000000000003	1
815.256611694217	0.38369999999999993	-0.0394666666666667	1
815.2566180230434	0.38369999999999993	-0.03960000000000003	1
815.2566180230434	0.38616666666666655	-0.03960000000000003	1
815.307840753511	0.3828999999999999	-0.03960000000000003	1
815.307840753511	0.39236666666666653	-0.0398666666666667	1
816.1432548742928	0.38796666666666657	-0.03933333333333337	1
816.1432548742928	0.38629999999999987	-0.03933333333333337	1
816.5366726801889	0.38746666666666657	-0.03933333333333337	1
816.5366726801889	0.3873333333333332	-0.03960000000000003	1
817.4290791517877	0.3789999999999999	-0.0394666666666667	1
817.4290791517877	0.3770666666666666	-0.03920000000000003	1
817.4290878215924	0.38456666666666656	-0.03960000000000003	1
817.4290878215924	0.3839999999999999	-0.03933333333333337	1
817.7747087416035	0.3839999999999999	-0.03893333333333337	1
817.7747087416035	0.3914666666666666	-0.0394666666666667	1
817.7747087416035	0.39583333333333326	-0.0394666666666667	1
818.6212035697032	0.39666666666666656	-0.0398666666666667	1
818.6212035697032	0.3910999999999999	-0.03973333333333337	1
818.6191892200555	0.3810999999999999	-0.03960000000000003	1
818.6191892200555	0.39106666666666656	-0.03973333333333337	1
818.6191569110865	0.3817333333333332	-0.0398666666666667	1
818.6191569110865	0.3936999999999999	-0.03973333333333337	1
818.9210485504226	0.3846333333333332	-0.03973333333333337	1
818.9210485504226	0.3852333333333332	-0.0394666666666667	1
819.8151368494966	0.37473333333333325	-0.03973333333333337	1
819.8151368494966	0.37473333333333325	-0.0394666666666667	1
819.8167321399111	0.3821666666666666	-0.03973333333333337	1
819.8167321399111	0.38373333333333326	-0.03973333333333337	1
820.6169198923185	0.38429999999999986	-0.03973333333333337	1
820.6169198923185	0.3802666666666666	-0.0394666666666667	1
820.7653367497841	0.38476666666666653	-0.03973333333333337	1
820.7653367497841	0.38806666666666656	-0.03973333333333337	1
821.1121287260869	0.3808999999999999	-0.03973333333333337	1
821.1121287260869	0.3957333333333332	-0.0394666666666667	1
821.5121813780111	0.38243333333333324	-0.03960000000000003	1
821.5121813780111	0.39289999999999986	-0.0394666666666667	1
821.9161004741585	0.38076666666666653	-0.03973333333333337	1
821.9161004741585	0.38076666666666653	-0.03973333333333337	1
822.1108949411479	0.3824666666666666	-0.03920000000000003	1
822.1108949411479	0.38999999999999985	-0.03920000000000003	1
822.2703730879689	0.39016666666666655	-0.03933333333333337	1
822.2703730879689	0.38833333333333325	-0.03933333333333337	1
822.3185541439034	0.3863666666666666	-0.03973333333333337	1
822.3185541439034	0.3917333333333332	-0.03933333333333337	1
822.7171902526735	0.3878999999999999	-0.0394666666666667	1
822.7171902526735	0.3810333333333332	-0.03920000000000003	1
822.7171902526735	0.38833333333333325	-0.03920000000000003	1
823.5230089772421	0.3850333333333332	-0.0398666666666667	1
823.5230089772421	0.3861999999999999	-0.0398666666666667	1
824.0247359472851	0.3861999999999999	-0.03973333333333337	1
824.0247359472851	0.38723333333333326	-0.03920000000000003	1
824.380940201141	0.3824999999999999	-0.03920000000000003	1
824.380940201141	0.38776666666666654	-0.0394666666666667	1
824.3813487083248	0.3856999999999999	-0.03933333333333337	1
824.3813487083248	0.3872666666666666	-0.03960000000000003	1
824.7829379514644	0.3944333333333332	-0.0390666666666667	1
824.7829379514644	0.37909999999999994	-0.03960000000000003	1
825.2888381724193	0.39166666666666655	-0.0390666666666667	1
825.2888381724193	0.39636666666666653	-0.038800000000000036	1
825.3895709756831	0.3886999999999999	-0.03960000000000003	1
825.3895709756831	0.37833333333333324	-0.03960000000000003	1
825.6945953705734	0.37833333333333324	-0.03933333333333337	1
825.6945953705734	0.3805999999999999	-0.0394666666666667	1
826.0975397026377	0.3762333333333332	-0.0394666666666667	1
826.0975397026377	0.38856666666666656	-0.03960000000000003	1
826.0975415139526	0.3917666666666666	-0.03920000000000003	1
826.0975415139526	0.3909666666666665	-0.03933333333333337	1
826.7056494327256	0.3777666666666666	-0.0394666666666667	1
826.7056494327256	0.38906666666666656	-0.03933333333333337	1
827.0108279677264	0.3831999999999999	-0.03920000000000003	1
827.0108279677264	0.38956666666666656	-0.0394666666666667	1
827.3157255010195	0.37866666666666654	-0.03960000000000003	1
827.3157255010195	0.38873333333333326	-0.038800000000000036	1
827.8227960403844	0.38873333333333326	-0.03893333333333337	1
827.8227960403844	0.39066666666666655	-0.0390666666666667	1
827.8227960403844	0.38306666666666656	-0.0390666666666667	1
828.169585066442	0.3958999999999999	-0.0390666666666667	1
828.169585066442	0.3896666666666666	-0.03920000000000003	1
828.3297911944536	0.37436666666666657	-0.03920000000000003	1
828.3297911944536	0.38446666666666657	-0.0394666666666667	1
828.6391063815136	0.3978666666666666	-0.03920000000000003	1
828.6391063815136	0.38383333333333325	-0.0394666666666667	1
828.841279047113	0.3828666666666666	-0.03920000000000003	1
828.841279047113	0.3831333333333332	-0.038800000000000036	1
829.4542939579516	0.39756666666666657	-0.0394666666666667	1
829.4542939579516	0.39756666666666657	-0.03933333333333337	1
829.4542948842264	0.39016666666666655	-0.03893333333333337	1
829.4542948842264	0.3886999999999999	-0.03893333333333337	1
829.9638996941518	0.3825999999999999	-0.03933333333333337	1
829.9638996941518	0.38626666666666654	-0.0398666666666667	1
830.0673021875964	0.39639999999999986	-0.03933333333333337	1
830.0673021875964	0.39356666666666656	-0.0398666666666667	1
830.0672271580116	0.39026666666666654	-0.03960000000000003	1
830.0672271580116	0.38093333333333323	-0.03933333333333337	1
830.8854088588989	0.38113333333333327	-0.0394666666666667	1
830.8854088588989	0.3872666666666666	-0.03973333333333337	1
830.8854085175032	0.3925999999999999	-0.03960000000000003	1
830.8854085175032	0.38993333333333324	-0.038533333333333364	1
831.2954008363491	0.38993333333333324	-0.0394666666666667	1
831.2954008363491	0.39826666666666655	-0.0394666666666667	1
831.7572647582422	0.38716666666666655	-0.03920000000000003	1
831.7572647582422	0.39583333333333326	-0.03933333333333337	1
831.9625574561308	0.39276666666666654	-0.0386666666666667	1
831.9625574561308	0.3886333333333333	-0.038533333333333364	1
831.9625574561308	0.3873666666666666	-0.038266666666666706	1
831.9625574561308	0.3970333333333332	-0.03960000000000003	1
831.9625574561308	0.37703333333333316	-0.03960000000000003	1
832.9910810450543	0.3808666666666666	-0.0390666666666667	1
832.9910810450543	0.3897999999999999	-0.03893333333333337	1
833.3505069922728	0.3798666666666666	-0.0394666666666667	1
833.3505069922728	0.3798666666666666	-0.03933333333333337	1
833.4045663637455	0.38469999999999993	-0.03933333333333337	1
833.4045663637455	0.3846666666666666	-0.03933333333333337	1
833.9650690208159	0.39086666666666653	-0.03960000000000003	1
833.9650690208159	0.3941333333333332	-0.03920000000000003	1
834.230063989004	0.3857666666666666	-0.038533333333333364	1
834.230063989004	0.3874999999999999	-0.0386666666666667	1
834.279851939556	0.38383333333333325	-0.03893333333333337	1
834.279851939556	0.39693333333333325	-0.03933333333333337	1
834.7453422913682	0.3866999999999999	-0.0386666666666667	1
834.7453422913682	0.3892666666666666	-0.03973333333333337	1
835.2611875105163	0.38023333333333326	-0.03893333333333337	1
835.2611875105163	0.38023333333333326	-0.0390666666666667	1
835.6268272101747	0.3824999999999999	-0.03920000000000003	1
835.6268272101747	0.37446666666666656	-0.03920000000000003	1
835.6268270181523	0.3935999999999999	-0.03933333333333337	1
835.6268270181523	0.3846333333333332	-0.0390666666666667	1
836.091150005118	0.3875999999999999	-0.0398666666666667	1
836.091150005118	0.38346666666666657	-0.03960000000000003	1
836.7689244317703	0.38519999999999993	-0.0398666666666667	1
836.7689244317703	0.3856666666666666	-0.03933333333333337	1
837.0276643483417	0.3797333333333332	-0.03933333333333337	1
837.0276643483417	0.39069999999999994	-0.0394666666666667	1
837.3408486164496	0.38376666666666653	-0.03920000000000003	1
837.3408486164496	0.38376666666666653	-0.03933333333333337	1
837.3406871659304	0.39329999999999987	-0.0390666666666667	1
837.3406871659304	0.38106666666666655	-0.0390666666666667	1
837.3406871659304	0.38293333333333324	-0.03920000000000003	1
837.7569139836465	0.38456666666666656	-0.0390666666666667	1
837.7569139836465	0.38939999999999986	-0.03933333333333337	1
838.1740639548103	0.3952999999999999	-0.0390666666666667	1
838.1740639548103	0.3795666666666666	-0.0394666666666667	1
838.4870520218304	0.39616666666666656	-0.03933333333333337	1
838.4870520218304	0.3899999999999999	-0.0394666666666667	1
839.1099168436111	0.3908999999999999	-0.0398666666666667	1
839.1099168436111	0.3905666666666665	-0.0394666666666667	1
839.2144860700025	0.3905666666666665	-0.0394666666666667	1
839.2144860700025	0.3936333333333332	-0.03960000000000003	1
839.5294066446917	0.3891333333333333	-0.03960000000000003	1
839.5294066446917	0.3882333333333332	-0.0398666666666667	1
839.5293009458211	0.38106666666666655	-0.03933333333333337	1
839.5293009458211	0.3821666666666666	-0.03933333333333337	1
840.4747029919765	0.3804999999999999	-0.0394666666666667	1
840.4747029919765	0.3892999999999999	-0.03973333333333337	1
840.6828519796817	0.3799333333333332	-0.03920000000000003	1
840.6828519796817	0.3843999999999999	-0.0390666666666667	1
840.9473232837506	0.3911999999999999	-0.0394666666666667	1
840.9473232837506	0.3764333333333333	-0.0394666666666667	1
841.3116803718409	0.3764333333333333	-0.03933333333333337	1
841.3116803718409	0.3892666666666666	-0.0394666666666667	1
841.3116803718409	0.38296666666666657	-0.0394666666666667	1
841.3116803718409	0.3798999999999999	-0.03973333333333337	1
841.6829343969088	0.3828666666666665	-0.0394666666666667	1
841.6829343969088	0.38793333333333324	-0.03960000000000003	1
841.8377048901892	0.38579999999999987	-0.0394666666666667	1
841.8377048901892	0.3827999999999999	-0.03973333333333337	1
841.8377048901892	0.3866333333333333	-0.03973333333333337	1
842.2621768413701	0.3893666666666666	-0.0398666666666667	1
842.2621768413701	0.38599999999999995	-0.0398666666666667	1
842.6836978579289	0.38599999999999995	-0.03973333333333337	1
842.6836978579289	0.3818666666666666	-0.0394666666666667	1
843.1052678483461	0.38939999999999986	-0.0394666666666667	1
843.1052678483461	0.38809999999999995	-0.0398666666666667	1
843.1052781014799	0.3874333333333332	-0.0398666666666667	1
843.1052781014799	0.3879999999999999	-0.03960000000000003	1
843.4233149642715	0.3888666666666666	-0.0398666666666667	1
843.4233149642715	0.3825999999999999	-0.0394666666666667	1
844.3735477508936	0.3867666666666666	-0.03973333333333337	1
844.3735477508936	0.3825999999999999	-0.03933333333333337	1
844.5851356014518	0.3965999999999999	-0.03933333333333337	1
844.5851356014518	0.38079999999999986	-0.0398666666666667	1
844.79995686941	0.38079999999999986	-0.03973333333333337	1
844.79995686941	0.3835333333333332	-0.040000000000000036	1
844.9028282353448	0.38679999999999987	-0.040000000000000036	1
844.9028282353448	0.39329999999999987	-0.03960000000000003	1
843.105244177123	0.3939666666666666	-0.0390666666666667	1
843.105244177123	0.3939666666666666	-0.03893333333333337	1
842.5754077659848	0.38633333333333325	-0.03893333333333337	1
842.5754077659848	0.39423333333333327	-0.03893333333333337	1
842.1542579691913	0.3841999999999999	-0.03973333333333337	1
842.1542579691913	0.38529999999999986	-0.03973333333333337	1
841.8375331811145	0.38583333333333325	-0.03933333333333337	1
841.8375331811145	0.38679999999999987	-0.03960000000000003	1
841.6294445448963	0.3931333333333332	-0.0390666666666667	1
841.6294445448963	0.38933333333333325	-0.0394666666666667	1
841.4174657525103	0.3882333333333332	-0.03933333333333337	1
841.4174657525103	0.3881333333333332	-0.03933333333333337	1
841.2096419443106	0.38363333333333327	-0.0394666666666667	1
841.2096419443106	0.38363333333333327	-0.0390666666666667	1
840.8940299309086	0.3889333333333332	-0.03933333333333337	1
840.8940299309086	0.39189999999999986	-0.03933333333333337	1
840.8937698165172	0.3818666666666665	-0.03893333333333337	1
840.8937698165172	0.3892333333333332	-0.0390666666666667	1
840.4746703036822	0.3801999999999999	-0.0390666666666667	1
840.4746703036822	0.38559999999999994	-0.03893333333333337	1
839.5293864931798	0.38123333333333326	-0.03960000000000003	1
839.5293864931798	0.38589999999999997	-0.03920000000000003	1
839.5293864931798	0.3873666666666666	-0.03920000000000003	1
839.5293826177726	0.3794333333333333	-0.03960000000000003	1
839.5293826177726	0.39256666666666656	-0.03973333333333337	1
839.216185711701	0.39256666666666656	-0.0394666666666667	1
839.216185711701	0.38946666666666657	-0.0390666666666667	1
839.1106165922457	0.3884999999999999	-0.0390666666666667	1
839.1106165922457	0.3851333333333332	-0.03933333333333337	1
838.5907229453928	0.3923333333333332	-0.03920000000000003	1
838.5907229453928	0.39166666666666655	-0.0390666666666667	1
838.1739009787428	0.3855999999999999	-0.038800000000000036	1
838.1739009787428	0.3891999999999999	-0.0390666666666667	1
837.7578145339795	0.39356666666666656	-0.038800000000000036	1
837.7578145339795	0.3825999999999999	-0.03960000000000003	1
837.4939704032922	0.3888666666666666	-0.03960000000000003	1
837.4939704032922	0.39569999999999994	-0.0394666666666667	1
837.3384827625842	0.39569999999999994	-0.0378666666666667	1
837.3384827625842	0.38906666666666656	-0.0378666666666667	1
837.0782808688916	0.37969999999999987	-0.03920000000000003	1
837.0782808688916	0.3897333333333332	-0.03920000000000003	1
837.0783178931771	0.39276666666666654	-0.03973333333333337	1
837.0783178931771	0.38566666666666655	-0.0390666666666667	1
836.6125186122254	0.3902999999999999	-0.0390666666666667	1
836.6125186122254	0.38376666666666653	-0.03893333333333337	1
836.0921305019945	0.37866666666666654	-0.03920000000000003	1
836.0921305019945	0.3859999999999999	-0.0386666666666667	1
835.627881785932	0.3857666666666666	-0.0394666666666667	1
835.627881785932	0.3857666666666666	-0.03960000000000003	1
835.4728369059484	0.3822666666666666	-0.0386666666666667	1
835.4728369059484	0.38569999999999993	-0.0386666666666667	1
835.4728369059484	0.3950999999999999	-0.03893333333333337	1
835.263606297744	0.39053333333333323	-0.03973333333333337	1
835.263606297744	0.39069999999999994	-0.03973333333333337	1
834.7958653328528	0.39003333333333323	-0.03933333333333337	1
834.7958653328528	0.3908999999999999	-0.0394666666666667	1
834.3331062992348	0.3895999999999999	-0.03933333333333337	1
834.3331062992348	0.3822999999999999	-0.03973333333333337	1
833.9693598562884	0.37896666666666656	-0.03933333333333337	1
833.9693598562884	0.3848333333333332	-0.0394666666666667	1
833.713387340073	0.3775333333333332	-0.03973333333333337	1
833.713387340073	0.3775333333333332	-0.0394666666666667	1
833.4031065549947	0.3881999999999999	-0.0394666666666667	1
833.4031065549947	0.3899666666666666	-0.03933333333333337	1
832.9902538384347	0.39609999999999995	-0.03973333333333337	1
832.9902538384347	0.37616666666666654	-0.0394666666666667	1
832.989474591905	0.3991333333333332	-0.03933333333333337	1
832.989474591905	0.39106666666666656	-0.040000000000000036	1
832.989474591905	0.38266666666666654	-0.03973333333333337	1
832.989474591905	0.3810333333333332	-0.038800000000000036	1
831.9630369344239	0.37809999999999994	-0.038800000000000036	1
831.9630369344239	0.3832999999999999	-0.03893333333333337	1
831.7065365851237	0.38339999999999985	-0.03933333333333337	1
831.7065365851237	0.38339999999999985	-0.0394666666666667	1
831.2953605094796	0.3950666666666665	-0.0394666666666667	1
831.2953605094796	0.3881333333333332	-0.0398666666666667	1
830.8854294381186	0.3845666666666666	-0.038800000000000036	1
830.8854294381186	0.38946666666666657	-0.03960000000000003	1
830.4736675819822	0.39026666666666654	-0.03973333333333337	1
830.4736675819822	0.40026666666666655	-0.03920000000000003	1
829.9660728900648	0.38399999999999984	-0.0394666666666667	1
829.9660728900648	0.38753333333333323	-0.03973333333333337	1
829.9660728900648	0.3902999999999999	-0.0394666666666667	1
829.966063772656	0.3913999999999999	-0.0398666666666667	1
829.966063772656	0.3874999999999999	-0.03973333333333337	1
829.5552431847312	0.3874999999999999	-0.03960000000000003	1
829.5552431847312	0.39213333333333317	-0.03960000000000003	1
829.2506908103384	0.39193333333333324	-0.0394666666666667	1
829.2506908103384	0.3851333333333332	-0.03960000000000003	1
828.7389867685681	0.3949999999999999	-0.0398666666666667	1
828.7389867685681	0.38183333333333325	-0.0394666666666667	1
828.7370356566037	0.3751999999999999	-0.0394666666666667	1
828.7370356566037	0.38766666666666655	-0.0398666666666667	1
828.0256545919951	0.38689999999999986	-0.040000000000000036	1
828.0256545919951	0.3967666666666666	-0.0394666666666667	1
828.025650747641	0.3818666666666666	-0.0394666666666667	1
828.025650747641	0.38396666666666657	-0.0398666666666667	1
827.823852321289	0.38396666666666657	-0.03920000000000003	1
827.823852321289	0.38666666666666655	-0.03920000000000003	1
827.0114001482132	0.37419999999999987	-0.03920000000000003	1
827.0114001482132	0.3825999999999999	-0.03973333333333337	1
826.9087124018002	0.39053333333333323	-0.03973333333333337	1
826.9087124018002	0.3895999999999999	-0.03933333333333337	1
826.1013342224237	0.38346666666666657	-0.03960000000000003	1
826.1013342224237	0.3852666666666666	-0.0394666666666667	1
826.0971611883199	0.3877333333333332	-0.038800000000000036	1
826.0971611883199	0.3789333333333333	-0.0394666666666667	1
826.0971611883199	0.3919666666666665	-0.03960000000000003	1
826.0971611883199	0.3914333333333332	-0.038800000000000036	1
825.5912115204283	0.3914333333333332	-0.0394666666666667	1
825.5912115204283	0.3826666666666666	-0.0394666666666667	1
825.5908811389293	0.38596666666666657	-0.0394666666666667	1
825.5908811389293	0.3852999999999999	-0.03933333333333337	1
824.7308463833788	0.37719999999999987	-0.03973333333333337	1
824.7308463833788	0.3781666666666666	-0.03960000000000003	1
824.7308463833788	0.37719999999999987	-0.0390666666666667	1
824.4305070610632	0.3954999999999999	-0.03960000000000003	1
824.4305070610632	0.39189999999999986	-0.03960000000000003	1
824.0245236243873	0.3831333333333332	-0.0394666666666667	1
824.0245236243873	0.3835333333333332	-0.0398666666666667	1
824.0257337515163	0.3771333333333332	-0.0390666666666667	1
824.0257337515163	0.3771333333333332	-0.03933333333333337	1
823.5201131624891	0.37696666666666656	-0.03960000000000003	1
823.5201131624891	0.3871333333333332	-0.03960000000000003	1
822.718124618835	0.38909999999999995	-0.0398666666666667	1
822.718124618835	0.3823666666666666	-0.03960000000000003	1
822.4155182850834	0.3843999999999999	-0.0398666666666667	1
822.4155182850834	0.39666666666666656	-0.0390666666666667	1
822.3140100872962	0.3826333333333332	-0.038800000000000036	1
822.3140100872962	0.3893999999999999	-0.0394666666666667	1
822.1109868347429	0.3924666666666666	-0.0390666666666667	1
822.1109868347429	0.39103333333333323	-0.0394666666666667	1
822.1109868347429	0.3879666666666665	-0.03933333333333337	1
822.1109868347429	0.3879666666666665	-0.03973333333333337	1
821.1162804966289	0.3831333333333332	-0.03933333333333337	1
821.1162804966289	0.38406666666666656	-0.03933333333333337	1
821.0163713853091	0.3840333333333332	-0.03933333333333337	1
821.0163713853091	0.39303333333333323	-0.03840000000000003	1
820.8132757294509	0.3722999999999999	-0.03933333333333337	1
820.8132757294509	0.3817999999999999	-0.0394666666666667	1
820.615045246461	0.3934666666666666	-0.03960000000000003	1
820.615045246461	0.3923999999999999	-0.0394666666666667	1
819.8165071359193	0.3871333333333332	-0.03920000000000003	1
819.8165071359193	0.3923333333333332	-0.03933333333333337	1
819.816669950055	0.39026666666666654	-0.038800000000000036	1
819.816669950055	0.39026666666666654	-0.0390666666666667	1
819.816669950055	0.3835333333333332	-0.03960000000000003	1
818.7192907426711	0.38956666666666656	-0.03960000000000003	1
818.7192907426711	0.3833666666666666	-0.0394666666666667	1
818.6204093503139	0.38723333333333326	-0.03920000000000003	1
818.6204093503139	0.39173333333333327	-0.0394666666666667	1
818.6205741640869	0.3912333333333332	-0.03960000000000003	1
818.6205741640869	0.3835333333333332	-0.03933333333333337	1
817.7299371630014	0.38793333333333324	-0.0394666666666667	1
817.7299371630014	0.3816333333333332	-0.0390666666666667	1
817.6289292459027	0.38923333333333326	-0.03933333333333337	1
817.6289292459027	0.3847666666666666	-0.03960000000000003	1
817.4289620072987	0.3847666666666666	-0.03973333333333337	1
817.4289620072987	0.3825999999999999	-0.03960000000000003	1
816.8371634872975	0.3913999999999999	-0.03960000000000003	1
816.8371634872975	0.38519999999999993	-0.03933333333333337	1
816.2419312472967	0.38666666666666655	-0.0390666666666667	1
816.2419312472967	0.3878666666666666	-0.03973333333333337	1
815.3542753030831	0.39399999999999985	-0.03973333333333337	1
815.3542753030831	0.3933999999999999	-0.03973333333333337	1
815.2554937917004	0.38099999999999995	-0.03933333333333337	1
815.2554937917004	0.3874333333333332	-0.03973333333333337	1
815.2552382743374	0.3851333333333332	-0.0394666666666667	1
815.2552382743374	0.3941999999999999	-0.03973333333333337	1
814.7635513564082	0.37766666666666654	-0.03960000000000003	1
814.7635513564082	0.37766666666666654	-0.0398666666666667	1
814.7634043530844	0.37969999999999987	-0.03933333333333337	1
814.7634043530844	0.3897999999999999	-0.03933333333333337	1
814.075028697151	0.3938999999999999	-0.0394666666666667	1
814.075028697151	0.3875999999999999	-0.0390666666666667	1
813.9773327902878	0.3934999999999999	-0.0394666666666667	1
813.9773327902878	0.39303333333333323	-0.03973333333333337	1
813.9773327902878	0.3863999999999999	-0.03933333333333337	1
813.1471979811569	0.38046666666666656	-0.03973333333333337	1
813.1471979811569	0.3972333333333332	-0.03933333333333337	1
813.0976914846536	0.3950666666666666	-0.03933333333333337	1
813.0976914846536	0.38083333333333325	-0.03973333333333337	1
813.0495097942652	0.38083333333333325	-0.03960000000000003	1
813.0495097942652	0.3850999999999999	-0.0394666666666667	1
811.919436567294	0.39116666666666655	-0.0394666666666667	1
811.919436567294	0.39913333333333323	-0.0398666666666667	1
811.9196012961434	0.3821666666666666	-0.0398666666666667	1
811.9196012961434	0.3911333333333333	-0.0394666666666667	1
811.9194066305938	0.38873333333333326	-0.03960000000000003	1
811.9194066305938	0.38833333333333325	-0.0398666666666667	1
811.5278763881923	0.3992666666666666	-0.03920000000000003	1
811.5278763881923	0.39203333333333323	-0.038800000000000036	1
811.3377619558511	0.3934666666666665	-0.03973333333333337	1
811.3377619558511	0.38183333333333325	-0.03920000000000003	1
811.1375084935298	0.38183333333333325	-0.03933333333333337	1
811.1375084935298	0.38293333333333324	-0.0394666666666667	1
810.7465840299985	0.38416666666666655	-0.0394666666666667	1
810.7465840299985	0.3887666666666666	-0.0390666666666667	1
810.6478538622495	0.39826666666666655	-0.03920000000000003	1
810.6478538622495	0.3873999999999999	-0.03973333333333337	1
810.2607172560447	0.3846333333333332	-0.03933333333333337	1
810.2607172560447	0.3882333333333332	-0.0394666666666667	1
809.7783328380709	0.3798999999999999	-0.03933333333333337	1
809.7783328380709	0.3821333333333332	-0.0394666666666667	1
809.7783328380709	0.38926666666666654	-0.03973333333333337	1
809.4831047116367	0.39043333333333324	-0.03973333333333337	1
809.4831047116367	0.39043333333333324	-0.0386666666666667	1
809.4831047116367	0.38333333333333325	-0.0390666666666667	1
809.4831047116367	0.3852999999999999	-0.0390666666666667	1
808.223188400869	0.38753333333333323	-0.03933333333333337	1
808.223188400869	0.38696666666666657	-0.03973333333333337	1
808.2231847647724	0.39229999999999987	-0.03973333333333337	1
808.2231847647724	0.38676666666666654	-0.03973333333333337	1
808.1270140053202	0.3820999999999999	-0.0394666666666667	1
808.1270140053202	0.3896999999999999	-0.03933333333333337	1
807.834257727193	0.38809999999999995	-0.0394666666666667	1
807.834257727193	0.39606666666666657	-0.03960000000000003	1
807.3526658749756	0.3902333333333332	-0.03973333333333337	1
807.3526658749756	0.3902333333333332	-0.03960000000000003	1
806.966316337572	0.3939999999999999	-0.03960000000000003	1
806.966316337572	0.3871999999999999	-0.03960000000000003	1
806.4841307014677	0.3896333333333332	-0.03973333333333337	1
806.4841307014677	0.39489999999999986	-0.03973333333333337	1
806.0993955302864	0.39393333333333325	-0.03960000000000003	1
806.0993955302864	0.3827333333333332	-0.0398666666666667	1
806.0055053748636	0.3835666666666666	-0.040000000000000036	1
806.0055053748636	0.3846999999999999	-0.0394666666666667	1
804.9446493395849	0.38366666666666654	-0.03973333333333337	1
804.9446493395849	0.3867666666666666	-0.0394666666666667	1
804.8289068515074	0.37856666666666655	-0.03960000000000003	1
804.8289068515074	0.37856666666666655	-0.0398666666666667	1
804.8289068515074	0.3816666666666666	-0.03920000000000003	1
804.8289068515074	0.3851333333333332	-0.03920000000000003	1
804.5620462545089	0.3821333333333332	-0.03960000000000003	1
804.5620462545089	0.38649999999999984	-0.03973333333333337	1
804.465368462239	0.3934666666666666	-0.03933333333333337	1
804.465368462239	0.3880666666666665	-0.0394666666666667	1
804.465368462239	0.3822666666666666	-0.03960000000000003	1
803.9860465266476	0.3860666666666666	-0.03960000000000003	1
803.9860465266476	0.3886999999999999	-0.0394666666666667	1
803.7949817264749	0.37543333333333323	-0.03933333333333337	1
803.7949817264749	0.3958999999999999	-0.0394666666666667	1
803.3141065381983	0.3958999999999999	-0.0394666666666667	1
803.3141065381983	0.3867666666666666	-0.0398666666666667	1
802.9323893684749	0.39003333333333323	-0.0398666666666667	1
802.9323893684749	0.38643333333333324	-0.0398666666666667	1
802.8395304564174	0.3895999999999999	-0.03960000000000003	1
802.8395304564174	0.38583333333333325	-0.0398666666666667	1
802.4541620228853	0.3867666666666666	-0.0390666666666667	1
802.4541620228853	0.3779999999999999	-0.0394666666666667	1
801.5979055878728	0.38906666666666656	-0.03920000000000003	1
801.5979055878728	0.3865333333333333	-0.03920000000000003	1
801.405564212954	0.3884999999999999	-0.03973333333333337	1
801.405564212954	0.38546666666666657	-0.03960000000000003	1
801.218435921262	0.38546666666666657	-0.03960000000000003	1
801.218435921262	0.3886999999999999	-0.03973333333333337	1
801.218436897385	0.3783666666666665	-0.03973333333333337	1
801.218436897385	0.39903333333333324	-0.03973333333333337	1
801.1256075392652	0.38679999999999987	-0.03933333333333337	1
801.1256075392652	0.3886999999999999	-0.03920000000000003	1
800.4558199557048	0.38293333333333324	-0.03933333333333337	1
800.4558199557048	0.38546666666666657	-0.03920000000000003	1
800.457424807873	0.3932999999999999	-0.03933333333333337	1
800.457424807873	0.38356666666666656	-0.0398666666666667	1
