wavelength(nm)	flourescence PMT(V)	ti_saph Power (V)	Gain (V)
820.6112867783154	0.00990000000000012	0.0026266666666666496	0.4
820.8722954300406	0.00990000000000012	0.002506666666666649	0.4
820.8704101756007	0.009933333333333454	0.002593333333333315	0.4
820.8704101756007	0.009966666666666785	0.002659999999999982	0.4
821.0154511226954	0.00990000000000012	0.0026666666666666484	0.4
821.1116200896571	0.009933333333333454	0.0025733333333333155	0.4
821.1116200896571	0.009866666666666786	0.0026733333333333158	0.4
821.1101148423003	0.009933333333333454	0.0025866666666666486	0.4
821.9112496951496	0.009933333333333454	0.002593333333333315	0.4
821.9106164490146	0.009933333333333454	0.0025466666666666485	0.4
821.9106164490146	0.009866666666666786	0.0026599999999999814	0.4
822.2139642250138	0.00990000000000012	0.0026599999999999814	0.4
822.3557932343639	0.01000000000000012	0.0025066666666666497	0.4
822.3557932343639	0.009966666666666785	0.002566666666666648	0.4
822.3134249491928	0.009966666666666785	0.002566666666666648	0.4
822.3133797416848	0.009866666666666786	0.00260666666666665	0.4
822.3134493284898	0.00990000000000012	0.0027066666666666485	0.4
822.3134493284898	0.009933333333333454	0.0025399999999999824	0.4
822.3134289869988	0.00990000000000012	0.0026466666666666483	0.4
822.3134152394687	0.00990000000000012	0.002566666666666648	0.4
822.3134152394687	0.00990000000000012	0.002593333333333315	0.4
822.5291747497064	0.00990000000000012	0.0026533333333333153	0.4
822.5291747497064	0.00990000000000012	0.0026533333333333153	0.4
824.0213151437218	0.009733333333333453	0.0025199999999999823	0.4
824.0213151437218	0.009833333333333453	0.002706666666666649	0.4
824.3839803535268	0.01000000000000012	0.002719999999999981	0.4
824.4264684087783	0.00990000000000012	0.0027599999999999825	0.4
824.4264684087783	0.009766666666666786	0.002879999999999982	0.4
824.3838492689314	0.009833333333333453	0.0027399999999999816	0.4
824.8312824059732	0.009866666666666786	0.002639999999999982	0.4
824.8307018240982	0.009866666666666786	0.0027666666666666486	0.4
824.8307018240982	0.009733333333333453	0.002586666666666649	0.4
825.2355395309098	0.009733333333333453	0.002686666666666649	0.4
825.7371216412926	0.009966666666666785	0.002693333333333315	0.4
825.7371216412926	0.009833333333333453	0.002693333333333315	0.4
825.7383310441417	0.00990000000000012	0.0025866666666666486	0.4
825.7408048779251	0.009833333333333453	0.0027266666666666485	0.4
825.7408425734477	0.00980000000000012	0.002673333333333315	0.4
825.7408425734477	0.009600000000000119	0.002733333333333315	0.4
826.0432783770871	0.00980000000000012	0.002719999999999981	0.4
826.044618658879	0.009633333333333454	0.0028399999999999814	0.4
826.044618658879	0.009933333333333454	0.002733333333333315	0.4
826.044618658879	0.00990000000000012	0.0026733333333333153	0.4
826.1430253753007	0.009866666666666786	0.002693333333333316	0.4
826.9553499163894	0.009866666666666786	0.0028333333333333153	0.4
826.9553499163894	0.009933333333333454	0.003079999999999981	0.4
827.0572678253695	0.009866666666666786	0.003079999999999981	0.4
827.0572678253695	0.009766666666666786	0.0029399999999999817	0.4
827.0572678253695	0.00990000000000012	0.003079999999999981	0.4
827.3623125153731	0.009866666666666786	0.003186666666666647	0.4
828.0641864898445	0.010033333333333455	0.003153333333333315	0.4
828.2764221926553	0.00980000000000012	0.004106666666666645	0.4
828.2764221926553	0.009933333333333454	0.005066666666666645	0.4
828.2764267390335	0.00990000000000012	0.005146666666666645	0.4
828.2764189768179	0.01000000000000012	0.005166666666666645	0.4
828.276444902341	0.01000000000000012	0.005239999999999977	0.4
828.276444902341	0.009733333333333453	0.0053266666666666445	0.4
828.6819756155335	0.00980000000000012	0.0053266666666666445	0.4
828.8283501479505	0.009666666666666787	0.006833333333333312	0.4
828.8283501479505	0.009666666666666787	0.006926666666666644	0.4
829.4019241269407	0.009700000000000118	0.01039999999999998	0.4
829.500190872503	0.009600000000000119	0.020766666666666652	0.4
829.4987729827403	0.009766666666666786	0.021293333333333317	0.4
829.4987729827403	0.009533333333333453	0.02123999999999998	0.4
829.500115879376	0.009833333333333453	0.02150666666666665	0.4
829.9094425019437	0.009866666666666786	0.021619999999999983	0.4
829.91197462795	0.00990000000000012	0.03861333333333331	0.4
829.91197462795	0.00990000000000012	0.040253333333333315	0.4
830.0129427259764	0.01000000000000012	0.04287333333333332	0.4
830.012929201874	0.009166666666666785	0.04287333333333332	0.4
830.012929201874	0.009766666666666786	0.043153333333333314	0.4
830.4227635420892	0.009366666666666787	0.05410666666666665	0.4
830.5197935197067	0.009766666666666786	0.06912666666666666	0.4
830.9347453371997	0.009833333333333453	0.07840666666666664	0.4
830.9347453371997	0.01000000000000012	0.08128666666666665	0.4
831.1378034969243	0.00950000000000012	0.08219333333333331	0.4
831.7542413240233	0.00980000000000012	0.08800666666666665	0.4
831.7542413240233	0.00950000000000012	0.08534666666666665	0.4
831.7531120158376	0.00940000000000012	0.08462666666666664	0.4
831.753018021653	0.00940000000000012	0.08397333333333332	0.4
831.753018021653	0.009833333333333453	0.09268666666666665	0.4
832.1664809908935	0.010033333333333455	0.09268666666666665	0.4
832.6778515913861	0.009766666666666786	0.09498666666666666	0.4
833.2986426023369	0.009733333333333453	0.09978666666666665	0.4
833.2986426023369	0.009766666666666786	0.08725999999999999	0.4
833.3987811940385	0.009600000000000119	0.0863733333333333	0.4
833.2987523279348	0.009433333333333451	0.08782	0.4
833.399991751798	0.009933333333333454	0.08806666666666665	0.4
833.399991751798	0.009933333333333454	0.08982666666666664	0.4
833.8131388965991	0.009633333333333454	0.09080666666666666	0.4
833.813030155732	0.009633333333333454	0.09114	0.4
833.813030155732	0.009600000000000119	0.09037333333333333	0.4
834.2266548510639	0.00920000000000012	0.09037333333333333	0.4
834.2265612394614	0.009666666666666787	0.09258666666666665	0.4
834.2265612394614	0.009600000000000119	0.09317333333333333	0.4
834.7407725135108	0.009233333333333453	0.09141999999999999	0.4
835.2617926882795	0.007300000000000117	0.08825999999999999	0.4
835.2618100935489	0.00010000000000011111	0.08637333333333332	0.4
835.2618100935489	0.0004999999999998894	0.08578666666666666	0.4
835.4668148065476	0.0028333333333332247	0.08865333333333332	0.4
835.4667387700873	0.0029999999999998916	0.08963999999999998	0.4
835.4667387700873	0.005933333333333227	0.0894	0.4
835.4664307317007	0.005933333333333227	0.08840666666666666	0.4
835.7777221808534	0.010066666666666564	0.08716666666666666	0.4
836.6078544637936	0.023366666666666577	0.08716666666666666	0.4
836.6078544637936	0.05216666666666653	0.08716666666666666	0.4
837.0228586635245	0.08079999999999986	0.09239333333333333	0.4
837.0227975195658	0.11456666666666654	0.10141333333333331	0.4
837.0227975195658	0.11896666666666654	0.10245333333333333	0.4
837.0237406738295	0.12226666666666655	0.10276666666666666	0.4
837.3359746517825	0.13473333333333323	0.10243999999999998	0.4
837.3359120901135	0.14713333333333323	0.10277999999999997	0.4
837.3359120901135	0.1475999999999999	0.10267999999999998	0.4
837.3357467060188	0.14346666666666658	0.10201999999999999	0.4
837.7553811991767	0.14346666666666658	0.09800666666666664	0.4
837.7553811991767	0.1477999999999999	0.08977333333333332	0.4
837.7516285449597	0.16459999999999994	0.08977333333333332	0.4
837.7518653085579	0.17003333333333326	0.08657999999999999	0.4
838.1720481961125	0.18633333333333327	0.08738	0.4
838.1720481961125	0.26706666666666656	0.09529999999999998	0.4
838.168164732213	0.2883999999999998	0.09582666666666666	0.4
838.2761814605711	0.29343333333333327	0.08981999999999998	0.4
838.2761814605711	0.3373999999999999	0.08811333333333332	0.4
838.5894447542405	0.3747999999999999	0.08995999999999997	0.4
839.2134547191928	0.5172999999999999	0.09985333333333332	0.4
839.2136781181634	0.5369666666666666	0.09837333333333331	0.4
839.2136781181634	0.5369666666666666	0.09175333333333333	0.4
839.4229441687155	0.5191666666666666	0.09296666666666666	0.4
839.5267355059733	0.5376333333333333	0.09296666666666666	0.4
839.5267355059733	0.5697999999999998	0.09705999999999998	0.4
839.5282779403906	0.5981999999999997	0.10038	0.4
839.7385317222731	0.5962333333333332	0.09920666666666665	0.4
839.7385317222731	0.6110333333333332	0.09675333333333332	0.4
839.7350945463071	0.6050333333333331	0.09566666666666668	0.4
840.8925569029436	0.7756333333333333	0.10436666666666665	0.4
840.888292217657	0.7813666666666668	0.10518666666666664	0.4
840.888292217657	0.7820333333333334	0.10531999999999998	0.4
840.892576574337	0.7827333333333333	0.10557999999999998	0.4
840.8926487017494	0.7827333333333333	0.10519999999999997	0.4
840.8926487017494	0.7805	0.10212666666666664	0.4
841.3091527856062	0.7872666666666664	0.10212666666666664	0.4
841.3090987666977	0.7361666666666666	0.09489333333333332	0.4
841.459668574252	0.6933999999999998	0.08869999999999999	0.4
841.459668574252	0.7252333333333332	0.09219999999999999	0.4
841.628506481834	0.7769999999999999	0.0962	0.4
841.6280662565483	0.7532	0.09246	0.4
841.6280662565483	0.7584666666666665	0.09326666666666665	0.4
841.7331441632389	0.8426333333333331	0.10273999999999998	0.4
842.0494701288186	0.8286999999999999	0.10067999999999999	0.4
842.2566246379014	0.8485333333333334	0.10179999999999999	0.4
842.2566246379014	0.8485333333333334	0.10142666666666665	0.4
842.3651397127796	0.8490666666666666	0.09283999999999999	0.4
842.9961288645579	0.7865999999999999	0.09283999999999999	0.4
842.9961288645579	0.7602666666666666	0.08963333333333333	0.4
843.1431115166444	0.7494666666666666	0.08820666666666666	0.4
843.0988982479604	0.7568666666666666	0.08939333333333331	0.4
843.0988982479604	0.8417666666666666	0.09913999999999999	0.4
843.2079483535157	0.7754999999999999	0.09065333333333332	0.4
843.5219179169691	0.7857999999999998	0.09263333333333333	0.4
843.5219703607033	0.7076666666666667	0.08429999999999997	0.4
843.5219703607033	0.6983333333333333	0.08314666666666665	0.4
844.79231358543	0.8017333333333333	0.09470666666666666	0.4
844.8993709603322	0.7383333333333333	0.08868666666666665	0.4
844.8993709603322	0.7383333333333333	0.08461999999999999	0.4
844.8993754934804	0.7024999999999998	0.08274666666666664	0.4
844.901423741596	0.6885333333333331	0.08274666666666664	0.4
845.1125985693859	0.7471333333333333	0.08895333333333331	0.4
845.1125985693859	0.7523333333333332	0.08900666666666665	0.4
845.1126046164351	0.7267999999999999	0.08652666666666665	0.4
845.4294213993235	0.7313999999999999	0.08704666666666666	0.4
845.4294213993235	0.7006	0.08323333333333331	0.4
845.644058936761	0.7103333333333333	0.08577999999999998	0.4
845.74958316065	0.6517666666666666	0.08030666666666664	0.4
846.0682589285205	0.7069999999999999	0.08551333333333332	0.4
846.0682589285205	0.6653333333333333	0.08143999999999997	0.4
846.1735244383088	0.6653333333333333	0.08603999999999998	0.4
847.0247038750846	0.7040333333333333	0.08995333333333333	0.4
847.0247038750846	0.7243666666666667	0.08995333333333333	0.4
847.0262459470681	0.7261999999999998	0.09095333333333332	0.4
848.4140964371411	0.7081333333333333	0.08859999999999998	0.4
848.4140964371411	0.6949333333333333	0.08732666666666665	0.4
848.4140964371411	0.7201	0.09027999999999999	0.4
848.8397059699257	0.6668333333333333	0.08460666666666666	0.4
848.839719723008	0.6222333333333334	0.07901333333333331	0.4
848.839719723008	0.6006666666666665	0.07637333333333331	0.4
848.841762821173	0.6298999999999999	0.08006666666666665	0.4
849.1124265853798	0.6778666666666665	0.08587999999999998	0.4
849.1124265853798	0.6778666666666665	0.09078666666666665	0.4
849.2703684440253	0.7177333333333333	0.08933333333333332	0.4
849.3282900794487	0.7045666666666667	0.08933333333333332	0.4
850.6651848319557	0.6946666666666665	0.08791333333333332	0.4
850.6651848319557	0.6639999999999999	0.08411333333333332	0.4
850.7707729605329	0.6738333333333334	0.08652666666666665	0.4
850.770903538589	0.6400333333333333	0.08211999999999997	0.4
850.770903538589	0.6178666666666667	0.07891333333333331	0.4
852.0607027378893	0.6136333333333333	0.07926666666666665	0.4
852.2793267701087	0.6126666666666667	0.08268666666666664	0.4
852.2794847438676	0.5427	0.07389999999999998	0.4
852.2794847438676	0.5815666666666666	0.07985999999999999	0.4
852.3384138884757	0.6018999999999999	0.08256666666666665	0.4
852.4922441023502	0.6018999999999999	0.07380666666666666	0.4
852.4922441023502	0.5388666666666666	0.07361999999999998	0.4
852.6609059979371	0.5377	0.07361999999999998	0.4
852.8202058033669	0.5367666666666666	0.07438666666666664	0.4
852.8201865889242	0.5472333333333332	0.07599999999999997	0.4
852.8201865889242	0.5681333333333334	0.07917999999999997	0.4
852.9271810327292	0.6337333333333331	0.08810666666666665	0.4
853.0343276293297	0.6174999999999998	0.08599999999999998	0.4
853.0343276293297	0.5703666666666665	0.08009333333333331	0.4
853.0343398161017	0.5701333333333332	0.08015999999999998	0.4
853.3078850727514	0.5777999999999999	0.0824733333333333	0.4
853.3598964657109	0.5670333333333332	0.08076666666666664	0.4
853.3598964657109	0.5670333333333332	0.08225333333333332	0.4
853.6844390213333	0.5772333333333332	0.07774666666666663	0.4
854.5047103547229	0.5395666666666665	0.07774666666666663	0.4
854.5047103547229	0.5457333333333332	0.07951999999999997	0.4
854.6108058849143	0.5133	0.0745533333333333	0.4
854.7184493456307	0.5328999999999999	0.07751333333333331	0.4
854.718411484576	0.5585666666666664	0.08181333333333331	0.4
854.718411484576	0.5744333333333331	0.08397333333333332	0.4
854.8261196388988	0.6188333333333332	0.09011333333333332	0.4
854.9380147264472	0.5742666666666666	0.08419333333333331	0.4
854.9380147264472	0.5522666666666665	0.08205333333333331	0.4
856.0747907337762	0.6529	0.09867999999999999	0.4
856.1298130776336	0.6352999999999999	0.09615333333333333	0.4
856.239912268887	0.6352999999999999	0.10386666666666665	0.4
856.239912268887	0.6955666666666667	0.10386666666666665	0.4
856.2399180170306	0.7000666666666668	0.10563999999999997	0.4
856.2400658989865	0.7000333333333334	0.10571999999999998	0.4
856.2400658989865	0.6877333333333333	0.10309333333333331	0.4
856.5067102599513	0.6243333333333332	0.09519999999999999	0.4
856.5086672633926	0.5684333333333331	0.08746666666666665	0.4
856.5103652129029	0.5597999999999996	0.08586666666666666	0.4
856.5103652129029	0.5611666666666664	0.08647333333333332	0.4
856.8360989967692	0.5784333333333332	0.08947333333333334	0.4
856.8359975056944	0.5531666666666665	0.08649999999999998	0.4
856.8359975056944	0.5668666666666666	0.08833999999999999	0.4
856.8370191611751	0.5668666666666666	0.09348	0.4
856.7911054348579	0.599	0.09348	0.4
856.9410457797698	0.6012999999999998	0.09317333333333333	0.4
856.9410457797698	0.6248999999999999	0.09657333333333333	0.4
857.1624278939936	0.5808	0.08985333333333333	0.4
857.1624278939936	0.5940666666666665	0.09303333333333334	0.4
857.1624278939936	0.5747999999999998	0.09007333333333332	0.4
857.3819820584101	0.47693333333333326	0.07672666666666665	0.4
858.740615017449	0.4554999999999999	0.0740533333333333	0.4
858.6946539099022	0.49566666666666653	0.0822533333333333	0.4
858.6946539099022	0.5055000000000001	0.08349333333333332	0.4
858.6946664763376	0.4994999999999999	0.08281333333333331	0.4
858.6937269528975	0.4994999999999999	0.08136666666666664	0.4
858.6937269528975	0.4815666666666666	0.07981333333333332	0.4
860.1207542180202	0.4697333333333333	0.07981333333333332	0.4
860.2321086632855	0.3983999999999999	0.07371999999999997	0.4
860.2320787855293	0.35109999999999986	0.06485999999999997	0.4
860.2320787855293	0.34416666666666645	0.06343333333333331	0.4
860.341118131877	0.35086666666666655	0.06518666666666664	0.4
860.3411134464818	0.3569666666666666	0.06577333333333331	0.4
860.3410827291405	0.35059999999999986	0.06488666666666665	0.4
860.3410827291405	0.34586666666666654	0.06442666666666665	0.4
860.562033788987	0.3194666666666665	0.06033999999999996	0.4
860.7814514871685	0.3153666666666665	0.05941333333333332	0.4
860.7814514871685	0.3153666666666665	0.061133333333333324	0.4
860.7815154297807	0.3179333333333332	0.058533333333333305	0.4
860.7814773754009	0.30823333333333314	0.058533333333333305	0.4
861.0023687341313	0.3028333333333332	0.05771999999999997	0.4
861.0023687341313	0.31806666666666655	0.06067999999999998	0.4
861.0035000446367	0.3240999999999998	0.06284666666666665	0.4
861.110041465256	0.3068333333333332	0.06013999999999998	0.4
861.110041465256	0.27483333333333326	0.05348666666666664	0.4
861.3337496858521	0.28569999999999984	0.05595999999999997	0.4
862.5467700974839	0.2545999999999999	0.054659999999999986	0.4
862.5468058764388	0.2476333333333332	0.053246666666666644	0.4
862.5468058764388	0.23646666666666658	0.052153333333333315	0.4
862.546783824496	0.23646666666666658	0.05100666666666665	0.4
864.0969179896456	0.23136666666666655	0.061759999999999975	0.4
864.0969126867445	0.2694333333333333	0.061759999999999975	0.4
864.0969126867445	0.23189999999999988	0.056353333333333304	0.4
864.2081539599307	0.2668666666666666	0.06261999999999998	0.4
864.3207503175967	0.2623666666666666	0.06150666666666665	0.4
864.3207503175967	0.2344333333333332	0.055573333333333315	0.4
864.320857606469	0.2208999999999999	0.051833333333333315	0.4
864.3199164336638	0.21756666666666655	0.051119999999999985	0.4
864.5185623335858	0.22796666666666654	0.05478666666666664	0.4
864.5185623335858	0.22309999999999994	0.05325999999999998	0.4
864.6546758781082	0.21109999999999995	0.05031333333333332	0.4
864.6569172468764	0.21079999999999993	0.05032666666666665	0.4
864.6569172468764	0.21079999999999993	0.05396666666666665	0.4
864.7625920388747	0.22299999999999992	0.054133333333333304	0.4
864.7659402366235	0.2242666666666666	0.054133333333333304	0.4
864.7659402366235	0.21363333333333326	0.050779999999999985	0.4
865.0979957939726	0.2108666666666666	0.050633333333333315	0.4
865.2105809392671	0.2087666666666666	0.05014666666666665	0.4
866.4354542961787	0.1904666666666666	0.04626666666666665	0.4
866.4354542961787	0.17743333333333328	0.04607999999999998	0.4
866.4353004001689	0.17969999999999994	0.04832666666666666	0.4
866.5263385428965	0.18319999999999992	0.04895333333333332	0.4
866.5263385428965	0.1838333333333333	0.04923999999999999	0.4
867.9467238615208	0.14163333333333322	0.04276666666666665	0.4
867.9467603787101	0.14163333333333322	0.04152666666666665	0.4
868.1709860798894	0.14026666666666657	0.04326666666666665	0.4
868.1709860798894	0.14293333333333322	0.04326666666666665	0.4
868.32859240559	0.14409999999999992	0.04409333333333332	0.4
868.2813637217945	0.1396999999999999	0.04262666666666665	0.4
868.2813637217945	0.1354333333333332	0.041306666666666644	0.4
868.3942863513678	0.13823333333333324	0.04193999999999998	0.4
868.3938833108125	0.14146666666666657	0.04407333333333331	0.4
868.6186959396858	0.14583333333333323	0.04623333333333333	0.4
868.6186959396858	0.13919999999999993	0.04321333333333332	0.4
868.6187325586674	0.1282999999999999	0.03994666666666665	0.4
868.7314188260203	0.13129999999999992	0.04106666666666665	0.4
868.7314188260203	0.13129999999999992	0.04116666666666665	0.4
868.7295198120769	0.1349999999999999	0.040126666666666644	0.4
868.7300025341884	0.12879999999999991	0.040126666666666644	0.4
868.7300025341884	0.11869999999999988	0.037686666666666646	0.4
869.0658937115924	0.11386666666666656	0.03699333333333331	0.4
868.1702952191414	0.1505333333333332	0.04714666666666666	0.4
867.9461041385076	0.1505333333333332	0.041439999999999984	0.4
867.9461138444758	0.14009999999999992	0.041439999999999984	0.4
867.9461138444758	0.13976666666666657	0.040379999999999985	0.4
866.6369885844113	0.15483333333333324	0.046339999999999985	0.4
866.5884746351659	0.1753666666666666	0.04794666666666666	0.4
866.5884746351659	0.18079999999999993	0.04881999999999999	0.4
866.4335444394586	0.18633333333333327	0.04965333333333333	0.4
866.4335444394586	0.20656666666666657	0.05120666666666665	0.4
864.9313368985039	0.19069999999999993	0.046473333333333325	0.4
864.9313368985039	0.2110666666666666	0.05086666666666665	0.4
864.6044384932894	0.20449999999999996	0.04879999999999999	0.4
864.6516278819437	0.2059666666666666	0.04955333333333332	0.4
864.6516278819437	0.2059666666666666	0.04943999999999999	0.4
864.6511728869551	0.2075666666666666	0.04943999999999999	0.4
864.6519703247941	0.20899999999999996	0.04974666666666666	0.4
864.4321313823177	0.21423333333333328	0.05069333333333332	0.4
864.4321313823177	0.21816666666666654	0.05165999999999998	0.4
864.3188705444994	0.21736666666666654	0.05079333333333332	0.4
864.3199737411561	0.21959999999999988	0.05135333333333332	0.4
864.3199737411561	0.23426666666666654	0.05543999999999998	0.4
864.2101903448025	0.2517666666666666	0.059693333333333314	0.4
864.0979697486155	0.25226666666666653	0.058993333333333314	0.4
864.0979697486155	0.2446999999999999	0.05758666666666664	0.4
863.9824095108711	0.24929999999999988	0.058186666666666643	0.4
862.766863623461	0.24929999999999988	0.061139999999999986	0.4
862.5434600547435	0.2749333333333332	0.05594666666666664	0.4
862.5434600547435	0.26126666666666654	0.05594666666666664	0.4
862.4369973727792	0.2471999999999999	0.05323333333333332	0.4
861.4410636808276	0.28603333333333314	0.059426666666666655	0.4
861.4410636808276	0.2552333333333332	0.05173333333333331	0.4
861.1128744576013	0.26693333333333324	0.05275333333333331	0.4
861.0029577451008	0.2863999999999999	0.05524666666666664	0.4
861.0920275445563	0.3047999999999998	0.058819999999999976	0.4
861.0920275445563	0.3031666666666665	0.058573333333333304	0.4
860.7815862105831	0.29439999999999983	0.05545999999999997	0.4
860.7816059830885	0.3049999999999998	0.05736666666666665	0.4
860.7816059830885	0.3049999999999998	0.06093333333333331	0.4
860.5609742908891	0.3244333333333332	0.060766666666666636	0.4
860.5610468778899	0.3246999999999998	0.060766666666666636	0.4
860.6973035593725	0.32526666666666654	0.06105999999999997	0.4
860.6973035593725	0.3369333333333332	0.06279333333333331	0.4
860.3392955080238	0.35586666666666655	0.06522666666666664	0.4
860.3411530685522	0.3614999999999999	0.06688666666666665	0.4
860.3411530685522	0.3672666666666666	0.0676133333333333	0.4
860.2321213736495	0.34759999999999985	0.06359333333333331	0.4
860.1218727688611	0.3748333333333332	0.06915999999999999	0.4
858.6962142426551	0.3850333333333333	0.07112666666666664	0.4
858.6962142426551	0.46403333333333335	0.07840666666666664	0.4
858.6934031055722	0.4751666666666665	0.08021999999999999	0.4
858.6934953778766	0.4751666666666665	0.08015333333333331	0.4
858.6934953778766	0.47629999999999983	0.08015333333333331	0.4
858.6935373528427	0.4740666666666666	0.08001999999999998	0.4
858.5859283697489	0.4646666666666666	0.0774733333333333	0.4
858.4748441372477	0.46416666666666667	0.07733999999999996	0.4
858.4748441372477	0.46943333333333326	0.07679999999999998	0.4
857.3818410835696	0.47856666666666664	0.07670666666666665	0.4
857.05146863239	0.5039333333333332	0.07979999999999997	0.4
857.05146863239	0.5351666666666666	0.08289999999999997	0.4
857.05283050634	0.5315666666666665	0.08172666666666663	0.4
857.0524440424747	0.5428000000000001	0.08329999999999999	0.4
856.9455932244294	0.5888999999999998	0.09063333333333333	0.4
856.9455932244294	0.5888999999999998	0.09826666666666665	0.4
856.9410230130559	0.6366999999999998	0.09872666666666664	0.4
856.941791841922	0.6413666666666665	0.09872666666666664	0.4
856.941791841922	0.6212333333333333	0.09534	0.4
856.6761943512796	0.5793666666666665	0.08878666666666665	0.4
856.455874352008	0.5847333333333332	0.08908666666666666	0.4
856.4559830717117	0.6503333333333333	0.09814666666666665	0.4
856.4559830717117	0.6563333333333332	0.09885999999999998	0.4
856.5073081680957	0.6167333333333331	0.09360666666666666	0.4
856.2390372762443	0.6040666666666665	0.09163333333333332	0.4
856.2390372762443	0.6891666666666667	0.10305333333333332	0.4
856.239154786578	0.6996666666666668	0.10478666666666664	0.4
856.2391602084313	0.6996666666666668	0.10399999999999997	0.4
856.2391602084313	0.6989333333333334	0.09224666666666666	0.4
856.0201201191248	0.6144666666666665	0.09224666666666666	0.4
854.8756112586806	0.5969666666666665	0.08944666666666666	0.4
854.8769252015812	0.5924333333333333	0.08645999999999998	0.4
854.8769252015812	0.5850666666666664	0.08487333333333331	0.4
854.6613606673984	0.5558333333333332	0.08063333333333332	0.4
854.71702801692	0.5551666666666665	0.08086666666666664	0.4
854.71702801692	0.609	0.08869999999999999	0.4
854.5004091890477	0.6086333333333332	0.08859999999999998	0.4
854.5003847753101	0.614	0.08903333333333331	0.4
853.3089155664328	0.5995333333333331	0.08577333333333331	0.4
853.3089155664328	0.6172666666666667	0.08746666666666665	0.4
853.2494805025987	0.6172666666666667	0.08523333333333333	0.4
853.1978258005838	0.5998999999999999	0.08102666666666664	0.4
853.1978258005838	0.5679333333333332	0.08102666666666664	0.4
853.0918004607812	0.5770999999999998	0.08220666666666664	0.4
852.9281950985829	0.6187999999999999	0.08721999999999998	0.4
852.9281950985829	0.6317333333333331	0.08851333333333332	0.4
852.9281950985829	0.6335666666666665	0.08843999999999999	0.4
852.7689385788761	0.6263	0.08743999999999999	0.4
852.5989841570636	0.6054666666666665	0.08371999999999997	0.4
852.4489822565969	0.5954333333333331	0.08171999999999999	0.4
852.4489822565969	0.5576666666666665	0.07657333333333331	0.4
852.3866625167409	0.6079666666666665	0.08335333333333331	0.4
852.2799284191667	0.6079666666666665	0.07795999999999997	0.4
852.2799284191667	0.5677333333333333	0.07778666666666664	0.4
852.2788056451393	0.5668999999999997	0.07778666666666664	0.4
850.9355917356058	0.5618333333333332	0.07595999999999997	0.4
850.6616879410741	0.5765666666666666	0.07581999999999998	0.4
850.6616879410741	0.6693666666666667	0.08612666666666664	0.4
849.4322615623208	0.6390666666666666	0.08243333333333332	0.4
849.2701868638	0.6976333333333334	0.08887333333333332	0.4
849.2701868638	0.7119	0.09120666666666664	0.4
849.1125443156394	0.713	0.09076666666666666	0.4
849.1125542379461	0.7208	0.09142	0.4
848.8406571095251	0.7212666666666666	0.09147999999999999	0.4
848.8406571095251	0.6199666666666667	0.07890666666666664	0.4
848.8408336944739	0.6199666666666667	0.07956666666666666	0.4
848.728601043419	0.6211333333333333	0.07956666666666666	0.4
848.728601043419	0.6600666666666666	0.08421999999999998	0.4
848.4152647111367	0.7210666666666666	0.09137999999999998	0.4
847.0252627257023	0.717	0.09039333333333333	0.4
847.0252627257023	0.7002666666666668	0.08827333333333331	0.4
847.0243654846448	0.705	0.08888666666666666	0.4
846.7047980031108	0.7047666666666667	0.08809333333333333	0.4
845.9599831794775	0.6831333333333334	0.0843533333333333	0.4
845.9599831794775	0.6755666666666665	0.08187333333333331	0.4
845.9599367366469	0.6785666666666665	0.0819133333333333	0.4
845.641160165623	0.6834666666666666	0.08355333333333331	0.4
845.641160165623	0.6834666666666666	0.08705999999999998	0.4
845.6412763979444	0.7156666666666667	0.08705999999999998	0.4
845.3225086522034	0.7434	0.08937333333333332	0.4
845.1125955942217	0.7803	0.09350666666666667	0.4
845.1125955942217	0.7068333333333334	0.08459333333333331	0.4
844.9016394395242	0.7054	0.08520666666666665	0.4
844.8993983766537	0.7615333333333332	0.09063333333333333	0.4
844.8993983766537	0.6922666666666665	0.08274666666666664	0.4
844.8994433919781	0.7194333333333333	0.08611333333333332	0.4
844.7942552417212	0.7818333333333332	0.093	0.4
844.7942552417212	0.8012999999999999	0.09483333333333334	0.4
843.6306355507965	0.7969333333333332	0.09335333333333332	0.4
843.4183045693036	0.7969333333333332	0.08904666666666666	0.4
843.1019176149306	0.7582666666666666	0.08904666666666666	0.4
843.1019176149306	0.7834666666666665	0.09171333333333331	0.4
843.101838869211	0.8361	0.09724666666666666	0.4
843.1020387791934	0.8408666666666667	0.09819333333333333	0.4
843.1020387791934	0.8212999999999999	0.09629333333333331	0.4
842.5181742657942	0.7681333333333333	0.09017333333333331	0.4
842.2579386338291	0.8122666666666665	0.09556666666666667	0.4
842.2579386338291	0.8597333333333333	0.10241333333333333	0.4
842.1513432388483	0.8283999999999999	0.09936666666666664	0.4
841.8365630080901	0.7082666666666667	0.08653333333333331	0.4
841.6279254273784	0.7430333333333333	0.09115333333333334	0.4
841.6279254273784	0.7430333333333333	0.09064666666666665	0.4
841.5213383578315	0.7260666666666666	0.08879999999999998	0.4
841.5211978707422	0.7038666666666666	0.08879999999999998	0.4
841.5211978707422	0.7388333333333332	0.09235333333333332	0.4
841.2055321635025	0.7570666666666664	0.09505333333333332	0.4
841.2055321635025	0.7721333333333333	0.09881333333333332	0.4
841.2055321635025	0.7799666666666668	0.10064666666666665	0.4
841.2048496099688	0.7730333333333335	0.10089333333333332	0.4
840.8932651747982	0.7453666666666665	0.09931333333333332	0.4
840.889295789442	0.7768999999999999	0.10351333333333332	0.4
840.889295789442	0.7765666666666667	0.1040133333333333	0.4
840.8893108320361	0.7152333333333332	0.09763999999999999	0.4
839.7400794169997	0.7152333333333332	0.09972666666666666	0.4
839.7400794169997	0.6620333333333331	0.10051333333333332	0.4
839.4251938237269	0.6183	0.10051333333333332	0.4
839.4255000304	0.5676666666666665	0.09719333333333333	0.4
839.4251524971003	0.562233333333333	0.09714666666666666	0.4
839.4251524971003	0.5599666666666664	0.09732666666666666	0.4
839.425303168635	0.5595666666666664	0.09824666666666665	0.4
839.1115683461464	0.5454666666666665	0.09848666666666667	0.4
839.1115683461464	0.469	0.08901999999999999	0.4
838.483873247672	0.4339999999999999	0.09087333333333333	0.4
838.1697500290126	0.3297333333333332	0.08881333333333333	0.4
838.1697500290126	0.29589999999999983	0.09341333333333333	0.4
838.1693664595673	0.29589999999999983	0.09544	0.4
838.1698129614679	0.28816666666666646	0.09544	0.4
837.7526312840573	0.27133333333333315	0.0948	0.4
837.7526312840573	0.19186666666666663	0.08925999999999998	0.4
837.7531349468936	0.1878333333333333	0.08953333333333333	0.4
837.3356408692238	0.17659999999999995	0.09169333333333332	0.4
837.3356408692238	0.14526666666666657	0.09846666666666666	0.4
837.3356546044819	0.13949999999999987	0.09836666666666666	0.4
837.2324694279536	0.13783333333333322	0.09693999999999998	0.4
837.2324694279536	0.1292999999999999	0.09570000000000001	0.4
837.0226803859471	0.11913333333333322	0.09863333333333332	0.4
836.920731814466	0.09136666666666653	0.08949999999999998	0.4
836.6079227621823	0.09136666666666653	0.08666666666666664	0.4
836.6079227621823	0.07066666666666652	0.08666666666666664	0.4
835.4975760722295	0.04649999999999989	0.08931333333333333	0.4
835.4670474757315	0.029833333333333246	0.09284666666666666	0.4
835.4670474757315	0.020099999999999906	0.08887333333333332	0.4
835.4672032304622	0.001966666666666557	0.08678	0.4
835.4667701878783	0.0014999999999998903	0.08687333333333333	0.4
835.4667701878783	0.001466666666666557	0.08757333333333332	0.4
835.0521797853945	0.0004999999999998894	0.09139999999999998	0.4
834.7417974003325	0.004433333333333448	0.08942666666666665	0.4
834.2267163548654	0.008333333333333451	0.08778	0.4
834.2267163548654	0.008333333333333451	0.09296666666666667	0.4
834.2267217407575	0.008966666666666786	0.09379333333333334	0.4
833.813247311664	0.009466666666666786	0.09379333333333334	0.4
833.813247311664	0.009700000000000118	0.08991333333333332	0.4
833.4002465407995	0.009666666666666787	0.09247333333333332	0.4
833.4000360835349	0.009566666666666786	0.09260666666666667	0.4
833.4000360835349	0.009733333333333453	0.09163999999999999	0.4
833.3997859905986	0.00950000000000012	0.09068666666666665	0.4
832.8860413237448	0.009366666666666787	0.08999999999999998	0.4
832.1655056348037	0.009766666666666786	0.09691999999999999	0.4
832.1655056348037	0.009666666666666787	0.09322	0.4
832.1655982119199	0.009766666666666786	0.09291999999999999	0.4
831.7549090905682	0.009766666666666786	0.08593999999999999	0.4
831.7549090905682	0.00980000000000012	0.08614	0.4
831.7529947556436	0.009533333333333453	0.08614	0.4
831.7537470664729	0.009533333333333453	0.08606666666666667	0.4
831.7537470664729	0.009733333333333453	0.08603999999999999	0.4
831.7537470664729	0.009633333333333454	0.08688	0.4
830.9327631485443	0.009233333333333453	0.08383333333333332	0.4
830.5224256889713	0.009000000000000119	0.07965999999999997	0.4
830.5224256889713	0.009733333333333453	0.07561999999999998	0.4
830.4208202336325	0.00990000000000012	0.07058666666666664	0.4
830.0110167761678	0.009466666666666786	0.059166666666666645	0.4
830.0110167761678	0.009466666666666786	0.04172666666666665	0.4
830.011117753479	0.009466666666666786	0.04079999999999999	0.4
829.9125090186764	0.00940000000000012	0.04079999999999999	0.4
829.5001421950985	0.009866666666666786	0.03941333333333332	0.4
829.5001421950985	0.00950000000000012	0.03803333333333331	0.4
829.5001720970095	0.009066666666666785	0.021006666666666653	0.4
829.5001767095661	0.009333333333333452	0.020979999999999988	0.4
829.5001767095661	0.008466666666666785	0.020999999999999984	0.4
829.4043068322853	0.008966666666666786	0.020719999999999985	0.4
828.6855307245531	0.008333333333333451	0.020199999999999985	0.4
828.6856393679753	0.009333333333333452	0.006759999999999978	0.4
828.6856393679753	0.009366666666666787	0.006786666666666645	0.4
828.6855271260192	0.009366666666666787	0.006733333333333311	0.4
828.2773069347414	0.009366666666666787	0.005786666666666645	0.4
828.2773069347414	0.009633333333333454	0.005786666666666645	0.4
828.2765028083776	0.009266666666666786	0.005179999999999978	0.4
828.2773846864536	0.009866666666666786	0.005253333333333311	0.4
827.9723421880177	0.009266666666666786	0.00529333333333331	0.4
827.9723421880177	0.009233333333333453	0.004673333333333311	0.4
827.7696333534157	0.00950000000000012	0.004073333333333312	0.4
827.3631561880253	0.009833333333333453	0.0035133333333333128	0.4
827.3631561880253	0.009566666666666786	0.0033333333333333136	0.4
827.05320047807	0.009633333333333454	0.003173333333333314	0.4
826.9564307886436	0.009600000000000119	0.0031599999999999805	0.4
826.4505624087204	0.009600000000000119	0.00313999999999998	0.4
826.4505624087204	0.009633333333333454	0.00313999999999998	0.4
826.0444347623895	0.00990000000000012	0.0027933333333333152	0.4
826.044358617417	0.009600000000000119	0.002813333333333315	0.4
826.044358617417	0.009233333333333453	0.002819999999999981	0.4
826.044358617417	0.00910000000000012	0.0027266666666666485	0.4
826.044358617417	0.009666666666666787	0.002799999999999981	0.4
825.7393782528703	0.00910000000000012	0.0027933333333333152	0.4
825.7393782528703	0.009733333333333453	0.0029133333333333147	0.4
825.7408196821516	0.009733333333333453	0.0027399999999999816	0.4
