wavelength(nm)	flourescence PMT(V)	ti_saph Power (V)	Gain (V)
750.2428479792869	0.058766666666666606	3.0210666666666666	1.0
750.2428479792869	0.0552666666666666	3.0210666666666666	1.0
750.2413305128977	0.051699999999999934	2.9564000000000004	1.0
750.2413305128977	0.05399999999999994	2.8296	1.0
750.7356956720571	0.05643333333333327	2.6873333333333327	1.0
750.7356956720571	0.054733333333333266	2.9394666666666667	1.0
750.9902208998681	0.05579999999999993	2.820666666666667	1.0
750.9902208998681	0.05179999999999994	2.7680000000000002	1.0
750.9902208998681	0.056099999999999935	2.797733333333334	1.0
750.9902208998681	0.05439999999999994	2.9529333333333336	1.0
750.9902208998681	0.05439999999999994	2.873466666666666	1.0
750.9902208998681	0.05479999999999993	2.8588	1.0
750.9902208998681	0.05479999999999993	2.8764000000000003	1.0
752.1542001368124	0.05679999999999994	2.897866666666667	1.0
752.1542001368124	0.0574666666666666	2.897866666666667	1.0
752.1564634624414	0.05393333333333327	2.967466666666667	1.0
752.1564634624414	0.05699999999999993	3.019333333333333	1.0
752.9096160613153	0.05493333333333328	2.987733333333333	1.0
752.9096160613153	0.05503333333333327	2.997066666666666	1.0
752.9101279788531	0.057833333333333264	3.0223999999999993	1.0
752.9101279788531	0.055366666666666606	3.035733333333333	1.0
753.161554831293	0.052966666666666606	3.0713333333333335	1.0
753.161554831293	0.05823333333333328	3.1060000000000003	1.0
753.161554831293	0.0580666666666666	3.0324	1.0
753.161554831293	0.05663333333333327	2.8110666666666666	1.0
753.161554831293	0.05663333333333327	2.8189333333333337	1.0
753.5809476278434	0.05413333333333327	2.724533333333333	1.0
753.5809476278434	0.055733333333333274	2.724533333333333	1.0
753.9981398701664	0.05513333333333327	2.7327999999999997	1.0
753.9981398701664	0.05933333333333328	3.0458666666666665	1.0
753.9982305134357	0.056699999999999945	3.1434666666666664	1.0
753.9982305134357	0.05546666666666661	2.9364000000000003	1.0
754.6756026221279	0.05719999999999994	2.8782666666666668	1.0
754.6756026221279	0.05446666666666661	2.8849333333333327	1.0
755.0129821926367	0.055066666666666604	2.7952000000000004	1.0
755.0129821926367	0.0551666666666666	2.779866666666667	1.0
755.8516463290073	0.05926666666666661	2.8775999999999997	1.0
755.8516463290073	0.05666666666666661	2.9378666666666673	1.0
756.1084928955394	0.0549666666666666	2.945466666666667	1.0
756.1084928955394	0.0549666666666666	2.945466666666667	1.0
756.1120400723739	0.0561666666666666	2.931866666666667	1.0
756.1120400723739	0.055533333333333275	2.931866666666667	1.0
756.1120400723739	0.05786666666666661	2.8775999999999997	1.0
756.1902241066556	0.05463333333333328	2.7512	1.0
756.1902241066556	0.0527666666666666	2.9538666666666664	1.0
756.5305067863918	0.056899999999999944	3.1296000000000004	1.0
756.5305067863918	0.057133333333333265	2.9970666666666665	1.0
756.8693352512105	0.05699999999999993	2.6148000000000002	1.0
756.8693352512105	0.055933333333333266	2.6950666666666665	1.0
756.8693352512105	0.050333333333333265	2.8332	1.0
756.8693352512105	0.057099999999999936	2.9338666666666664	1.0
756.8693352512105	0.057099999999999936	2.8784	1.0
756.8693352512105	0.05223333333333327	2.8106666666666666	1.0
757.7140483555846	0.05833333333333327	2.8106666666666666	1.0
757.7140483555846	0.05863333333333327	2.7734666666666667	1.0
757.7140483555846	0.05659999999999994	2.7857333333333334	1.0
757.7140483555846	0.055733333333333274	2.7892	1.0
757.7140483555846	0.055366666666666606	2.7705333333333337	1.0
758.0564727903097	0.05456666666666661	2.7896000000000005	1.0
758.0564727903097	0.052999999999999936	2.7746666666666666	1.0
758.7349244177879	0.0540666666666666	2.8386666666666667	1.0
758.7349244177879	0.05119999999999993	2.9544000000000006	1.0
759.0750325047118	0.0524666666666666	2.9316	1.0
759.0750325047118	0.05413333333333327	2.8610666666666664	1.0
758.7349411842883	0.05413333333333327	2.8564000000000003	1.0
758.7349411842883	0.051699999999999934	3.0234666666666667	1.0
758.7349523007651	0.05179999999999993	3.0234666666666667	1.0
758.7349523007651	0.055533333333333275	3.1374666666666666	1.0
758.0158868430121	0.05439999999999993	3.1795999999999998	1.0
758.0158868430121	0.05559999999999993	3.120933333333334	1.0
758.0158868430121	0.05383333333333327	3.0861333333333336	1.0
762.0675951708826	0.052433333333333276	3.019866666666666	1.0
762.0675951708826	0.053966666666666614	3.007733333333333	1.0
762.069164383664	0.055533333333333275	2.9766666666666666	1.0
762.069164383664	0.055066666666666604	2.9925333333333333	1.0
762.1515446755303	0.053899999999999934	3.198	1.0
762.1515446755303	0.05476666666666661	3.2941333333333342	1.0
762.2708183624615	0.05476666666666661	3.300266666666667	1.0
762.2708183624615	0.06163333333333327	3.2065333333333332	1.0
762.4146297448955	0.05569999999999993	3.2065333333333332	1.0
762.4146297448955	0.05493333333333328	3.2628000000000004	1.0
763.616042899444	0.057133333333333265	3.3296000000000006	1.0
763.616042899444	0.05649999999999994	3.3665333333333334	1.0
763.6160336689211	0.04989999999999994	3.430800000000001	1.0
763.6160336689211	0.05703333333333327	3.2896	1.0
763.6160336689211	0.055699999999999944	2.933866666666667	1.0
763.6160336689211	0.05729999999999995	2.9082666666666666	1.0
763.6160336689211	0.0567666666666666	2.8799999999999994	1.0
763.9615921363838	0.055633333333333264	2.879866666666666	1.0
763.9615921363838	0.055633333333333264	2.9153333333333333	1.0
763.9588259420917	0.05653333333333326	2.930266666666667	1.0
763.9588259420917	0.05403333333333327	2.930266666666667	1.0
763.9598705803766	0.05733333333333327	2.9425333333333334	1.0
763.9598705803766	0.052699999999999934	3.0919999999999996	1.0
763.9598705803766	0.05829999999999995	3.169466666666666	1.0
763.9598705803766	0.05523333333333327	3.2314666666666665	1.0
764.9048661530845	0.058266666666666606	3.2665333333333337	1.0
764.9048661530845	0.06319999999999995	3.360533333333333	1.0
764.9064676569604	0.05719999999999994	3.3693333333333335	1.0
764.9064676569604	0.05713333333333328	3.3677333333333337	1.0
764.9064676569604	0.05509999999999995	3.3458666666666668	1.0
764.9070111616303	0.05509999999999995	3.3880000000000003	1.0
764.9070111616303	0.05193333333333327	3.2772	1.0
764.9911536538118	0.057899999999999945	3.2772	1.0
764.9911536538118	0.057566666666666606	3.1412000000000004	1.0
764.9911536538118	0.057833333333333264	3.3873333333333333	1.0
764.9911536538118	0.05566666666666661	3.3953333333333338	1.0
765.5167633617621	0.05453333333333328	3.2781333333333333	1.0
765.5167633617621	0.05609999999999995	3.5058666666666674	1.0
765.5171873201953	0.06299999999999994	3.5336	1.0
765.5171873201953	0.05226666666666661	3.2609333333333335	1.0
765.948502006833	0.05749999999999994	3.0751999999999997	1.0
765.948502006833	0.05783333333333328	3.1052000000000004	1.0
765.9456758288592	0.054033333333333274	3.0210666666666666	1.0
765.9456758288592	0.05739999999999994	3.019733333333333	1.0
765.9456758288592	0.05739999999999994	3.2716	1.0
765.9456758288592	0.05273333333333328	3.3625333333333334	1.0
765.9456758288592	0.05889999999999993	3.3625333333333334	1.0
767.0782470415224	0.059966666666666606	3.289066666666667	1.0
767.0782470415224	0.0592666666666666	3.240666666666667	1.0
767.0760562602767	0.058766666666666606	3.227333333333334	1.0
767.0760562602767	0.05949999999999995	3.1164	1.0
767.5115219970555	0.057599999999999936	3.374666666666667	1.0
767.5115219970555	0.059299999999999936	3.254666666666667	1.0
767.7739903073858	0.05723333333333327	3.3048	1.0
767.7739903073858	0.05713333333333328	3.4289333333333327	1.0
767.945281471801	0.05449999999999993	3.6370666666666662	1.0
767.945281471801	0.05823333333333327	3.6386666666666656	1.0
768.2090509905477	0.05823333333333327	3.4773333333333336	1.0
768.2090509905477	0.05683333333333328	3.4798666666666667	1.0
768.2100976740171	0.054499999999999944	3.48	1.0
768.2100976740171	0.05679999999999994	3.48	1.0
768.7295237396669	0.05643333333333327	3.5342666666666673	1.0
768.7295237396669	0.055999999999999946	3.6117333333333335	1.0
768.7295237396669	0.05843333333333327	3.1152000000000006	1.0
768.7295237396669	0.05256666666666661	3.3661333333333334	1.0
768.7295237396669	0.054199999999999936	3.3840000000000003	1.0
768.9976129430304	0.05816666666666662	3.2090666666666667	1.0
768.9976129430304	0.05666666666666661	3.169466666666667	1.0
770.1353506259663	0.05813333333333328	3.4749333333333334	1.0
770.1353506259663	0.0537666666666666	3.499466666666667	1.0
770.1327865697618	0.0537666666666666	3.5596000000000005	1.0
770.1327865697618	0.057599999999999936	3.558266666666667	1.0
770.2193390725824	0.05919999999999995	3.558266666666667	1.0
770.2193390725824	0.05883333333333328	3.5720000000000005	1.0
770.9228805835662	0.05573333333333326	3.7064000000000004	1.0
770.9228805835662	0.058466666666666604	3.3921333333333332	1.0
770.9228805835662	0.060733333333333285	3.5033333333333334	1.0
770.922534500527	0.05449999999999993	3.3133333333333335	1.0
770.922534500527	0.05706666666666661	3.4787999999999997	1.0
771.007703285509	0.05393333333333327	3.792533333333334	1.0
771.007703285509	0.05469999999999994	3.714933333333333	1.0
771.3596361095646	0.05856666666666661	3.6794666666666673	1.0
771.3596361095646	0.056699999999999945	3.630133333333333	1.0
771.7132296186629	0.056699999999999945	3.799200000000001	1.0
771.7132296186629	0.06099999999999994	3.739333333333334	1.0
771.7132296186629	0.057099999999999936	3.739333333333334	1.0
771.7132296186629	0.05483333333333327	3.4632	1.0
772.0691612300836	0.055399999999999935	3.2533333333333334	1.0
772.0691612300836	0.0536666666666666	3.2228	1.0
772.0691612300836	0.05726666666666662	3.2712000000000003	1.0
772.0691612300836	0.05579999999999993	3.515066666666667	1.0
773.2172134387939	0.056399999999999936	3.5584000000000007	1.0
773.2172134387939	0.05986666666666661	3.4966666666666666	1.0
773.2172134387939	0.05463333333333326	3.2285333333333335	1.0
773.9239274092209	0.057166666666666616	3.7505333333333337	1.0
773.9239274092209	0.054733333333333266	3.36	1.0
774.0113115003606	0.054733333333333266	3.0667999999999997	1.0
774.0113115003606	0.057666666666666595	3.0386666666666664	1.0
774.0122097865678	0.058733333333333276	3.0386666666666664	1.0
774.0122097865678	0.05833333333333327	3.384533333333333	1.0
774.0122097865678	0.05689999999999993	3.9089333333333327	1.0
774.0122097865678	0.0567666666666666	3.9554666666666662	1.0
774.811318610456	0.06383333333333328	3.8193333333333332	1.0
774.811318610456	0.05899999999999994	3.895733333333333	1.0
775.0800476056648	0.05619999999999994	3.6633333333333336	1.0
775.0800476056648	0.05443333333333328	3.6442666666666668	1.0
775.1650873108923	0.056099999999999935	3.486133333333334	1.0
775.1650873108923	0.054166666666666606	3.4178666666666673	1.0
775.1638548606139	0.055366666666666606	3.4242666666666675	1.0
775.1638548606139	0.055366666666666606	3.4172000000000002	1.0
775.1638548606139	0.059499999999999935	3.553066666666667	1.0
776.3209904679372	0.0605666666666666	3.553066666666667	1.0
776.3209904679372	0.058299999999999935	3.6805333333333343	1.0
776.3218115955701	0.058466666666666604	3.6403999999999996	1.0
776.3218115955701	0.061099999999999946	3.426933333333333	1.0
776.6818959012503	0.06013333333333328	3.3772	1.0
776.6818959012503	0.06169999999999995	3.6213333333333337	1.0
777.0352278773905	0.06069999999999994	3.84	1.0
777.0352278773905	0.060466666666666606	3.7932	1.0
777.2111963357462	0.06036666666666662	3.4965333333333333	1.0
777.2111963357462	0.05986666666666661	3.4284	1.0
777.4841173809946	0.060666666666666605	3.9968	1.0
777.4841173809946	0.060666666666666605	3.765066666666667	1.0
777.9311766250797	0.05706666666666661	3.635333333333334	1.0
777.9311766250797	0.060966666666666613	3.635333333333334	1.0
777.9311766250797	0.06389999999999993	3.769333333333334	1.0
778.287698608977	0.06109999999999993	3.813066666666666	1.0
778.287698608977	0.06789999999999995	3.6486666666666663	1.0
778.2867872182992	0.06073333333333327	3.490133333333333	1.0
778.2867872182992	0.06726666666666661	3.4801333333333333	1.0
778.4750884275655	0.06003333333333328	3.490133333333333	1.0
778.4750884275655	0.060499999999999936	3.625733333333333	1.0
779.4532960372093	0.06503333333333328	3.5828000000000007	1.0
779.4532960372093	0.06839999999999995	3.8662666666666663	1.0
779.4532960372093	0.06839999999999995	3.762133333333333	1.0
779.4532960372093	0.0672666666666666	3.4419999999999997	1.0
779.4532960372093	0.0635666666666666	3.4419999999999997	1.0
779.4532960372093	0.07006666666666661	3.6018666666666665	1.0
779.4532960372093	0.06579999999999994	3.876133333333333	1.0
780.2607487893548	0.06423333333333327	3.6508000000000007	1.0
780.2607487893548	0.06739999999999995	3.481466666666667	1.0
780.6254206604006	0.06413333333333328	3.715466666666666	1.0
780.6254206604006	0.07046666666666662	3.9925333333333333	1.0
781.0738165072694	0.07006666666666661	3.6066666666666665	1.0
781.0738165072694	0.07126666666666662	3.955333333333333	1.0
781.350190467001	0.07126666666666662	4.120933333333334	1.0
781.350190467001	0.07126666666666662	4.1004000000000005	1.0
781.4358192006939	0.07816666666666662	3.890133333333333	1.0
781.4358192006939	0.07106666666666663	3.890133333333333	1.0
781.6268273303521	0.06726666666666661	3.491333333333334	1.0
781.6268273303521	0.06799999999999995	3.6194666666666655	1.0
782.6132902528797	0.07313333333333329	3.6776	1.0
782.6132902528797	0.07543333333333327	3.8376	1.0
782.6132902528797	0.07749999999999996	3.8028000000000004	1.0
782.8859684795309	0.0777333333333333	3.752400000000001	1.0
782.8859684795309	0.08063333333333329	3.5598666666666667	1.0
783.3384758020472	0.08226666666666661	3.9386666666666663	1.0
783.3384758020472	0.08036666666666661	3.9603999999999995	1.0
783.3432994118137	0.08106666666666662	3.851333333333333	1.0
783.3432994118137	0.08106666666666662	3.5797333333333334	1.0
783.7044695651833	0.07886666666666663	3.6411999999999995	1.0
783.7044695651833	0.08473333333333329	3.6411999999999995	1.0
783.7044695651833	0.08729999999999997	3.834	1.0
783.7044695651833	0.08643333333333328	3.8807999999999994	1.0
784.5210943414315	0.08316666666666662	3.591466666666667	1.0
784.5210943414315	0.09366666666666662	4.1204	1.0
784.5210943414315	0.09533333333333328	4.199333333333334	1.0
784.5235560069451	0.09513333333333328	4.2	1.0
784.5235560069451	0.09299999999999996	4.197733333333333	1.0
784.6118363016182	0.09533333333333328	3.9079999999999995	1.0
784.6118363016182	0.0956333333333333	3.8735999999999997	1.0
784.8896122439356	0.09909999999999995	3.9523999999999995	1.0
784.8896122439356	0.09069999999999996	3.7770666666666664	1.0
784.8895934110267	0.09069999999999996	3.6399999999999992	1.0
784.8895934110267	0.09223333333333329	3.744533333333334	1.0
786.0765712596852	0.09586666666666663	3.744533333333334	1.0
786.0765712596852	0.10573333333333329	4.000933333333333	1.0
786.0737538348752	0.10143333333333328	3.8549333333333333	1.0
786.0737538348752	0.10926666666666662	3.844533333333333	1.0
786.528309830667	0.10746666666666663	3.8213333333333335	1.0
786.528309830667	0.11519999999999996	4.0424	1.0
786.528309830667	0.12303333333333327	4.184533333333333	1.0
786.8973534949753	0.12263333333333329	4.111199999999999	1.0
786.8973534949753	0.11943333333333328	3.812533333333334	1.0
786.8972940314093	0.12169999999999997	3.8280000000000003	1.0
786.8972940314093	0.12169999999999997	4.087466666666667	1.0
787.7602001684277	0.13063333333333327	3.8584	1.0
787.7602001684277	0.12749999999999995	3.8584	1.0
787.7212016044161	0.13666666666666663	4.141333333333334	1.0
787.7212016044161	0.13816666666666663	4.128266666666667	1.0
787.7222375138157	0.13703333333333328	4.122933333333334	1.0
787.7222375138157	0.14189999999999994	4.122533333333334	1.0
787.7222375138157	0.1415333333333333	3.8616	1.0
787.7222375138157	0.14699999999999994	3.8029333333333337	1.0
787.7222375138157	0.14259999999999995	3.800133333333334	1.0
788.0913678580745	0.13176666666666662	3.7332	1.0
788.0913678580745	0.19423333333333326	3.9398666666666666	1.0
789.2865764211213	0.19423333333333326	3.8124000000000007	1.0
789.2865764211213	0.18719999999999992	4.0124	1.0
789.6576638943395	0.21196666666666658	4.0124	1.0
789.6576638943395	0.22093333333333323	4.323733333333333	1.0
790.031645650963	0.22879999999999992	4.359466666666667	1.0
790.031645650963	0.2263666666666666	3.956266666666666	1.0
790.1171809843278	0.23359999999999995	3.757200000000001	1.0
790.1171809843278	0.2496666666666666	3.9355999999999995	1.0
790.7696228391801	0.2553999999999999	3.8262666666666663	1.0
790.7696228391801	0.2696666666666666	3.820666666666667	1.0
790.8607808586765	0.29223333333333323	4.188000000000001	1.0
790.8607808586765	0.30483333333333323	4.223866666666667	1.0
790.8607808586765	0.3034333333333332	4.1724	1.0
791.0425137986123	0.3034333333333332	3.8182666666666667	1.0
791.0425137986123	0.29393333333333327	3.8004000000000002	1.0
791.0425137986123	0.29099999999999987	3.8004000000000002	1.0
791.0425137986123	0.2963333333333333	3.799200000000001	1.0
791.3205320696694	0.3079333333333332	3.7880000000000003	1.0
791.3205320696694	0.3210333333333332	3.8080000000000003	1.0
792.4380767967563	0.4359666666666666	4.056266666666667	1.0
792.4380767967563	0.43589999999999995	3.962133333333333	1.0
792.9006720272292	0.49049999999999994	4.097733333333334	1.0
792.9006720272292	0.5321666666666666	4.298533333333333	1.0
792.9006720272292	0.5232333333333332	4.2808	1.0
793.2757081890438	0.5443333333333332	3.9670666666666663	1.0
793.2757081890438	0.5443333333333332	3.7988000000000013	1.0
793.2757770926721	0.5483	3.7716000000000007	1.0
793.2757770926721	0.5381333333333334	3.7716000000000007	1.0
793.2757770926721	0.6545	4.230266666666667	1.0
793.2757770926721	0.6908	4.422133333333335	1.0
793.9810057440203	0.6925333333333333	3.9387999999999996	1.0
793.9810057440203	0.7239333333333332	4.0064	1.0
794.2078982608678	0.7902666666666666	4.132133333333335	1.0
794.2078982608678	0.7703666666666666	4.066400000000001	1.0
794.4860513476565	0.7830999999999999	4.076266666666667	1.0
794.4860513476565	0.8038	3.859066666666666	1.0
794.4860513476565	0.8038	3.806133333333334	1.0
794.4876741921006	0.7967666666666666	3.8296000000000006	1.0
794.4876741921006	0.7917333333333333	3.8296000000000006	1.0
794.5789614548156	0.8513	3.9616000000000002	1.0
794.5789614548156	1.1692666666666667	4.143733333333333	1.0
793.7388164021293	0.6321666666666665	3.8477333333333337	1.0
793.272213398209	0.5391666666666667	4.116	1.0
793.272213398209	0.5503666666666666	4.116	1.0
792.8115043089663	0.5196333333333333	4.254	1.0
792.8115043089663	0.4800333333333333	3.9919999999999995	1.0
792.4380276732619	0.4749333333333333	4.107733333333334	1.0
792.4380276732619	0.45019999999999993	4.171333333333334	1.0
792.4380276732619	0.4224	4.152133333333333	1.0
792.4380276732619	0.3042333333333333	3.8022666666666676	1.0
791.232753532851	0.31373333333333325	3.781600000000001	1.0
791.232753532851	0.30369999999999997	3.867333333333333	1.0
791.2328111999018	0.29766666666666663	3.959999999999999	1.0
791.2328111999018	0.30303333333333327	4.010533333333334	1.0
790.9512790127309	0.30303333333333327	3.8778666666666664	1.0
790.9512790127309	0.2994333333333332	4.214266666666666	1.0
790.9512790127309	0.3129666666666666	4.214266666666666	1.0
790.8608725618092	0.29473333333333324	4.138933333333334	1.0
790.8608725618092	0.2858666666666666	4.0149333333333335	1.0
790.4884911766728	0.2746666666666666	4.055733333333333	1.0
790.4884911766728	0.24146666666666655	3.979466666666667	1.0
790.0306527583333	0.2349999999999999	3.8721333333333328	1.0
790.0306527583333	0.22853333333333326	3.8676	1.0
789.6577161935695	0.21449999999999989	4.156133333333334	1.0
789.6577161935695	0.22593333333333324	4.363333333333335	1.0
789.1974218009001	0.22003333333333325	4.3878666666666675	1.0
789.1974218009001	0.2027999999999999	4.184	1.0
788.090488471052	0.2027999999999999	4.076	1.0
788.090488471052	0.1684666666666666	3.7628000000000004	1.0
788.090488471052	0.1411666666666666	3.7628000000000004	1.0
787.9975646702464	0.13973333333333327	3.9976	1.0
787.9975646702464	0.14979999999999993	4.117333333333334	1.0
787.7246924575888	0.14316666666666664	3.9543999999999992	1.0
787.7246924575888	0.13429999999999995	3.9754666666666663	1.0
787.7212536020692	0.14129999999999995	4.2516	1.0
787.7212536020692	0.1461333333333333	4.285866666666666	1.0
787.5468683630511	0.14323333333333327	4.0884	1.0
787.5468683630511	0.1301333333333333	3.7938666666666676	1.0
786.9005237982904	0.12789999999999996	3.996266666666667	1.0
786.9005237982904	0.12789999999999996	3.6370666666666662	1.0
786.8963862805616	0.11306666666666662	3.5518666666666663	1.0
786.8963862805616	0.11496666666666662	3.5518666666666663	1.0
786.8963862805616	0.12073333333333328	3.5696000000000003	1.0
786.4416303584715	0.11659999999999997	3.656266666666667	1.0
786.4416303584715	0.11433333333333327	3.803600000000001	1.0
786.4416363552481	0.1223333333333333	3.8106666666666675	1.0
786.4416363552481	0.1148666666666666	3.9485333333333332	1.0
786.0746942701282	0.11429999999999997	4.121200000000001	1.0
786.0746942701282	0.11256666666666663	4.120266666666667	1.0
786.0746050576137	0.11176666666666663	4.115066666666666	1.0
786.0746050576137	0.10246666666666662	3.911333333333333	1.0
784.8897086503233	0.10246666666666662	3.8005333333333344	1.0
784.8897086503233	0.09453333333333329	3.799200000000001	1.0
784.8897086503233	0.09419999999999996	3.799200000000001	1.0
784.803014017615	0.10233333333333329	3.8000000000000007	1.0
784.803014017615	0.09649999999999996	4.1248000000000005	1.0
784.6113581050671	0.09096666666666661	3.989066666666666	1.0
784.6113581050671	0.09379999999999995	3.972266666666666	1.0
784.5207738981652	0.09346666666666663	4.094533333333334	1.0
784.5207738981652	0.09153333333333329	4.1997333333333335	1.0
784.432602113563	0.08783333333333329	3.7105333333333337	1.0
784.432602113563	0.09106666666666662	3.688266666666667	1.0
783.7044374449243	0.08803333333333328	4.019466666666667	1.0
783.7044374449243	0.08699999999999995	3.517733333333334	1.0
783.340481725596	0.08149999999999996	3.4870666666666663	1.0
783.340481725596	0.08149999999999996	3.6866666666666665	1.0
783.340481725596	0.08463333333333328	4.216	1.0
783.3416281303458	0.08359999999999995	4.216	1.0
783.3416281303458	0.08549999999999995	4.266533333333333	1.0
783.3432425517685	0.08759999999999996	4.264533333333333	1.0
783.3432425517685	0.08089999999999994	4.088933333333333	1.0
782.6129391708565	0.07729999999999994	4.12	1.0
782.6129391708565	0.07679999999999995	4.122933333333334	1.0
781.7089151966865	0.07633333333333328	3.9175999999999997	1.0
781.7089151966865	0.06666666666666662	3.7676000000000007	1.0
781.3468229286582	0.07119999999999994	3.812266666666667	1.0
781.3468229286582	0.07313333333333327	3.8691999999999993	1.0
781.3468229286582	0.07313333333333327	3.8886666666666665	1.0
781.3468591600878	0.06969999999999996	3.9639999999999995	1.0
781.3468591600878	0.07143333333333328	3.9639999999999995	1.0
780.984147026519	0.07449999999999996	4.044666666666667	1.0
780.984147026519	0.06896666666666662	3.7306666666666675	1.0
780.5400755136626	0.06956666666666661	3.7126666666666672	1.0
780.5400755136626	0.06603333333333328	3.523733333333334	1.0
780.1726957226912	0.06793333333333328	3.8189333333333337	1.0
780.1726957226912	0.07279999999999995	3.925866666666667	1.0
779.8175555544614	0.07046666666666662	3.981466666666666	1.0
779.8175555544614	0.06666666666666661	3.662133333333333	1.0
779.454898784038	0.06586666666666662	3.5696000000000003	1.0
779.454898784038	0.06566666666666662	4.096000000000001	1.0
779.454898784038	0.06566666666666662	4.0572	1.0
778.5594552617907	0.05973333333333327	3.89	1.0
778.5594552617907	0.06003333333333328	3.89	1.0
778.28789235137	0.06539999999999994	3.7965333333333335	1.0
778.28789235137	0.061899999999999955	3.865333333333333	1.0
778.20072019257	0.0649666666666666	3.8044000000000007	1.0
778.20072019257	0.06606666666666662	3.640133333333333	1.0
778.1116700787477	0.05899999999999994	3.609866666666667	1.0
778.1116700787477	0.06143333333333327	3.6188	1.0
778.1116700787477	0.060566666666666616	3.5533333333333332	1.0
777.4839881403477	0.0605666666666666	3.544	1.0
777.4839881403477	0.06399999999999993	3.5132000000000003	1.0
777.3947576523415	0.05916666666666661	3.6350666666666664	1.0
777.3947576523415	0.05916666666666661	3.7681333333333336	1.0
777.0360434377475	0.0629666666666666	3.8301333333333334	1.0
777.0360434377475	0.0653666666666666	4.025333333333333	1.0
776.9490689979656	0.06333333333333328	4.025333333333333	1.0
776.9490689979656	0.061466666666666614	4.068666666666666	1.0
776.680890835312	0.06219999999999994	3.5798666666666668	1.0
776.680890835312	0.057566666666666606	3.5026666666666673	1.0
776.680890835312	0.05853333333333327	3.742266666666666	1.0
776.680890835312	0.059866666666666596	3.6345333333333336	1.0
776.680890835312	0.057933333333333274	3.614533333333333	1.0
775.2498680025194	0.05586666666666661	3.6286666666666663	1.0
775.2498680025194	0.05853333333333327	3.549333333333334	1.0
775.1644995479121	0.05749999999999994	3.6110666666666664	1.0
775.1644995479121	0.05749999999999994	3.3493333333333335	1.0
775.0792345062159	0.058733333333333276	3.258	1.0
775.0792345062159	0.053566666666666596	3.167333333333333	1.0
775.0792345062159	0.056266666666666604	3.167333333333333	1.0
775.0792345062159	0.05653333333333326	3.4116	1.0
774.3645386605931	0.05863333333333327	3.331866666666667	1.0
774.3645386605931	0.05369999999999994	3.3998666666666666	1.0
774.3645386605931	0.05479999999999993	3.3560000000000003	1.0
774.0123560119321	0.05896666666666661	3.4588000000000005	1.0
774.0123560119321	0.05803333333333328	3.5016000000000003	1.0
773.9259720010582	0.05933333333333328	3.6048	1.0
773.9259720010582	0.05683333333333328	3.757866666666667	1.0
773.3001639515658	0.059033333333333264	3.3966666666666665	1.0
773.3001639515658	0.06159999999999994	3.6250666666666667	1.0
773.2181536444841	0.06159999999999994	3.691466666666667	1.0
773.2181536444841	0.05589999999999994	3.7873333333333337	1.0
772.067901803903	0.053333333333333274	3.7873333333333337	1.0
772.067901803903	0.05243333333333327	3.5292	1.0
772.067901803903	0.05759999999999994	3.6423999999999994	1.0
772.0661988272066	0.054333333333333275	3.6752	1.0
772.0661988272066	0.05439999999999994	3.667466666666667	1.0
771.7159601224597	0.059499999999999935	3.4584	1.0
771.7159601224597	0.06199999999999994	3.322933333333333	1.0
771.2746667535399	0.05659999999999994	3.270933333333334	1.0
771.2746667535399	0.05623333333333327	3.1765333333333334	1.0
771.0077506247219	0.06016666666666661	3.3079999999999994	1.0
771.0077506247219	0.06016666666666661	3.3477333333333332	1.0
770.9208476438607	0.055099999999999934	3.36	1.0
770.9208476438607	0.05339999999999994	3.36	1.0
770.9208476438607	0.05813333333333328	3.413066666666667	1.0
770.9227378671659	0.053633333333333276	3.4065333333333334	1.0
770.9227378671659	0.05766666666666661	3.3996	1.0
770.1316818318652	0.05446666666666661	3.4013333333333335	1.0
770.1316818318652	0.05729999999999995	3.673733333333333	1.0
770.1339030466004	0.05279999999999994	3.7696000000000005	1.0
770.1339030466004	0.05516666666666661	3.8133333333333335	1.0
769.0801308050263	0.05589999999999994	3.8376	1.0
769.0801308050263	0.056733333333333275	3.4549333333333334	1.0
769.0801308050263	0.05379999999999993	3.477866666666667	1.0
769.0801308050263	0.05379999999999993	3.236533333333333	1.0
768.9125832624607	0.055366666666666606	3.1020000000000003	1.0
768.9125832624607	0.05446666666666661	3.1020000000000003	1.0
768.9125832624607	0.0526666666666666	3.1879999999999997	1.0
768.9125832624607	0.05456666666666661	3.2516000000000003	1.0
768.9125832624607	0.05513333333333327	3.301066666666667	1.0
768.2101637717718	0.056866666666666614	3.3865333333333334	1.0
768.2101637717718	0.05803333333333328	3.2451999999999996	1.0
767.9453893928189	0.05853333333333327	3.1768	1.0
767.9453893928189	0.060633333333333275	3.1656	1.0
767.7730225231633	0.056666666666666594	3.1447999999999996	1.0
767.7730225231633	0.056166666666666615	3.323466666666667	1.0
767.7762742065071	0.056266666666666604	3.403866666666667	1.0
767.7762742065071	0.056266666666666604	3.261733333333334	1.0
767.7762742065071	0.05459999999999994	3.534133333333334	1.0
767.0784224678885	0.057566666666666606	3.534133333333334	1.0
767.0784224678885	0.052666666666666605	3.684533333333334	1.0
767.0789886171816	0.05519999999999994	3.7145333333333337	1.0
767.0789886171816	0.05609999999999995	3.492933333333333	1.0
765.94635105866	0.0568666666666666	3.2136000000000005	1.0
765.94635105866	0.05516666666666661	3.4536000000000007	1.0
765.865467026743	0.05446666666666661	3.4776000000000007	1.0
765.865467026743	0.057999999999999934	3.3048	1.0
765.8667707654811	0.05889999999999993	3.098533333333333	1.0
765.8667707654811	0.05679999999999994	3.2121333333333335	1.0
765.8667707654811	0.05369999999999994	3.2896000000000005	1.0
765.516923305669	0.05369999999999994	3.2636000000000007	1.0
765.516923305669	0.05133333333333327	3.2369333333333334	1.0
765.4329570501995	0.05823333333333327	3.2369333333333334	1.0
765.4329570501995	0.04883333333333327	3.2126666666666663	1.0
764.908759364288	0.05483333333333327	3.2178666666666667	1.0
764.908759364288	0.05106666666666661	3.2188000000000003	1.0
764.9058830700125	0.05443333333333327	3.176533333333333	1.0
764.9058830700125	0.05459999999999994	3.1679999999999997	1.0
764.9058826750959	0.0581666666666666	3.1750666666666665	1.0
764.9058826750959	0.057099999999999936	3.2732000000000006	1.0
764.9058826750959	0.056233333333333274	3.360133333333333	1.0
764.3930416908535	0.050799999999999935	3.400133333333334	1.0
764.3930416908535	0.050799999999999935	2.9302666666666664	1.0
764.3930416908535	0.05863333333333327	3.3304000000000005	1.0
764.3930416908535	0.05359999999999993	3.3089333333333335	1.0
764.3930416908535	0.05343333333333326	3.3089333333333335	1.0
764.3930416908535	0.05319999999999994	3.1726666666666663	1.0
763.9613759327569	0.05976666666666662	3.3180000000000005	1.0
763.9613759327569	0.056233333333333274	3.3709333333333333	1.0
763.961357199392	0.05399999999999995	3.3682666666666665	1.0
763.961357199392	0.05469999999999994	3.3612	1.0
763.961357199392	0.05199999999999994	3.372	1.0
763.9613445606236	0.05539999999999994	3.3694666666666664	1.0
763.9613445606236	0.055966666666666616	3.2950666666666666	1.0
762.4148399967088	0.05409999999999994	3.1634666666666664	1.0
762.4148399967088	0.05249999999999994	2.9521333333333337	1.0
762.4148644956485	0.05249999999999994	2.8568	1.0
762.4148644956485	0.05459999999999994	2.8819999999999997	1.0
762.153379893042	0.05613333333333327	2.8819999999999997	1.0
762.153379893042	0.05406666666666662	3.017333333333333	1.0
762.1517758061841	0.05646666666666661	3.0341333333333336	1.0
762.1517758061841	0.054533333333333274	3.018533333333333	1.0
762.1517758061841	0.05346666666666661	3.177866666666667	1.0
762.0694208010964	0.05279999999999994	3.2653333333333334	1.0
762.0694208010964	0.05319999999999994	3.3309333333333333	1.0
761.8910488260491	0.05713333333333328	3.260266666666667	1.0
761.8910488260491	0.05373333333333328	3.1730666666666667	1.0
758.8969700997393	0.0573666666666666	3.1129333333333338	1.0
758.8969700997393	0.055699999999999944	3.033333333333333	1.0
758.8213129893188	0.055699999999999944	3.116133333333333	1.0
758.8213129893188	0.05003333333333327	3.202266666666667	1.0
759.0776333124473	0.05586666666666661	3.202266666666667	1.0
759.0776333124473	0.058766666666666606	3.188266666666667	1.0
759.0776333124473	0.055966666666666595	3.1617333333333333	1.0
758.821695203957	0.056533333333333276	3.084266666666667	1.0
758.821695203957	0.05499999999999993	3.0230666666666663	1.0
758.821695203957	0.058899999999999945	2.8842666666666665	1.0
758.821695203957	0.056666666666666594	2.982133333333333	1.0
758.821695203957	0.052499999999999936	3.020666666666666	1.0
758.821695203957	0.05696666666666661	3.018533333333333	1.0
757.7142871382187	0.05739999999999994	2.953066666666666	1.0
757.7142871382187	0.0558666666666666	2.9672	1.0
756.9511289176307	0.0558666666666666	2.957866666666667	1.0
756.9511289176307	0.05413333333333327	2.957866666666667	1.0
756.9511289176307	0.050333333333333265	2.8613333333333335	1.0
756.9511289176307	0.0532666666666666	2.8042666666666665	1.0
756.9511289176307	0.05693333333333328	2.9389333333333334	1.0
756.6133424018653	0.05869999999999994	3.078266666666667	1.0
756.6133424018653	0.0561666666666666	3.1526666666666667	1.0
756.1925613863332	0.0525666666666666	3.0076	1.0
756.1925613863332	0.053199999999999935	2.865866666666667	1.0
756.0728802401122	0.05173333333333327	2.9603999999999995	1.0
756.0728802401122	0.05543333333333327	3.1488000000000005	1.0
756.1101893237877	0.05399999999999994	3.1736	1.0
756.1101893237877	0.0515666666666666	3.1041333333333334	1.0
755.8537574634566	0.0515666666666666	3.026666666666667	1.0
755.8537574634566	0.056733333333333275	3.0262666666666664	1.0
755.8537574634566	0.05799999999999995	3.0262666666666664	1.0
755.0131924864912	0.05226666666666661	2.8876	1.0
755.0131924864912	0.05593333333333328	2.9010666666666665	1.0
754.9341052458052	0.05796666666666661	2.9270666666666663	1.0
754.9341052458052	0.05129999999999993	2.9021333333333335	1.0
753.9984523838249	0.049799999999999935	2.9059999999999997	1.0
753.9984523838249	0.058699999999999954	2.8848000000000003	1.0
753.9984523838249	0.055699999999999944	2.811466666666667	1.0
753.9984523838249	0.055933333333333266	2.8549333333333333	1.0
753.5814485361037	0.05213333333333327	3.07	1.0
753.5814485361037	0.05676666666666661	3.0676	1.0
753.5814485361037	0.05676666666666661	2.8220000000000005	1.0
753.1627332961287	0.053366666666666604	3.183333333333333	1.0
753.1627332961287	0.0571666666666666	3.183333333333333	1.0
753.163615829131	0.05293333333333327	3.2820000000000005	1.0
753.163615829131	0.0567666666666666	3.244933333333334	1.0
752.9068463145239	0.0561666666666666	3.0343999999999998	1.0
752.9068463145239	0.05486666666666661	2.9076000000000004	1.0
754.2657207470091	0.05319999999999994	2.9684	1.0
754.2657207470091	0.0559666666666666	2.9259999999999997	1.0
752.1567338949908	0.05139999999999993	2.858	1.0
752.1567338949908	0.0498666666666666	2.8408	1.0
752.1567338949908	0.05289999999999994	2.8566666666666665	1.0
751.8205993400079	0.05719999999999994	2.9219999999999997	1.0
751.8205993400079	0.05719999999999994	2.9833333333333334	1.0
751.0712903712599	0.05739999999999994	2.9394666666666662	1.0
751.0712903712599	0.056166666666666615	2.9394666666666662	1.0
751.0712903712599	0.05353333333333327	2.8651999999999997	1.0
751.0712903712599	0.05643333333333327	2.974533333333334	1.0
750.3244806824688	0.05306666666666661	2.8922666666666665	1.0
750.3244806824688	0.053799999999999945	2.7585333333333333	1.0
750.2420833889222	0.054533333333333274	2.8225333333333333	1.0
750.2420833889222	0.054333333333333275	3.0116	1.0
750.2420833889222	0.05283333333333327	2.9762666666666666	1.0
