wavelength(nm)	flourescence PMT(V)	ti_saph Power (V)	Gain (V)
820.6122035449815	0.00990000000000012	0.002693333333333315	0.4
820.6110782256136	0.009933333333333454	0.002526666666666649	0.4
820.6110782256136	0.009933333333333454	0.0025933333333333156	0.4
820.6107801201291	0.01000000000000012	0.0025933333333333156	0.4
821.0112796199876	0.00990000000000012	0.002659999999999982	0.4
821.1114042981993	0.009833333333333453	0.0026266666666666487	0.4
821.1114042981993	0.009966666666666785	0.0026466666666666487	0.4
821.1114527637799	0.00990000000000012	0.0025399999999999824	0.4
821.111136989081	0.01000000000000012	0.002593333333333315	0.4
821.9107592982525	0.010033333333333455	0.0026266666666666483	0.4
821.9107592982525	0.010033333333333455	0.0026133333333333147	0.4
821.9107405329868	0.009933333333333454	0.002633333333333315	0.4
822.2137586784638	0.01000000000000012	0.0026399999999999818	0.4
822.3111724668074	0.01000000000000012	0.002539999999999983	0.4
822.3111724668074	0.01000000000000012	0.002519999999999983	0.4
822.3133076525042	0.010066666666666786	0.002519999999999983	0.4
822.3133009744232	0.01000000000000012	0.0025533333333333155	0.4
822.3133009744232	0.009966666666666785	0.002546666666666649	0.4
822.313373729144	0.01000000000000012	0.0025533333333333155	0.4
822.3133773223899	0.01000000000000012	0.002519999999999983	0.4
822.3133838611401	0.01000000000000012	0.002639999999999982	0.4
822.3133838611401	0.01000000000000012	0.002606666666666648	0.4
822.7142356103001	0.009966666666666785	0.0025266666666666484	0.4
824.0211038791184	0.01000000000000012	0.0026199999999999817	0.4
824.0211277436665	0.009966666666666785	0.002673333333333315	0.4
824.0211277436665	0.009966666666666785	0.0025799999999999816	0.4
824.0223254153653	0.01000000000000012	0.0025533333333333155	0.4
824.4263660869569	0.009966666666666785	0.0025533333333333155	0.4
824.4246077081926	0.01000000000000012	0.0025999999999999825	0.4
824.4246077081926	0.01000000000000012	0.0025599999999999824	0.4
824.7280357559522	0.01000000000000012	0.0026599999999999823	0.4
824.8307345577626	0.009866666666666786	0.0026266666666666483	0.4
824.8309043010296	0.009933333333333454	0.0024799999999999827	0.4
824.8309043010296	0.009866666666666786	0.002606666666666648	0.4
825.2333807492364	0.009933333333333454	0.0025799999999999825	0.4
825.6387472761124	0.009966666666666785	0.0026799999999999823	0.4
825.6387472761124	0.009933333333333454	0.002626666666666649	0.4
825.7808965882722	0.009933333333333454	0.0026533333333333157	0.4
825.7383485473212	0.009966666666666785	0.0026533333333333157	0.4
825.7383485473212	0.01000000000000012	0.0025933333333333156	0.4
825.7383485473212	0.01010000000000012	0.0025999999999999817	0.4
826.0432522551885	0.009966666666666785	0.0026733333333333153	0.4
826.0441533155077	0.009933333333333454	0.0028333333333333153	0.4
826.0442108884821	0.009833333333333453	0.0027466666666666486	0.4
826.0442108884821	0.01000000000000012	0.002653333333333315	0.4
826.0442775998391	0.01000000000000012	0.002766666666666648	0.4
826.9555541165007	0.009966666666666785	0.0029533333333333143	0.4
826.9545851601514	0.010033333333333455	0.0029733333333333144	0.4
826.9545851601514	0.010033333333333455	0.0029266666666666473	0.4
827.3622827713268	0.009966666666666785	0.0032066666666666476	0.4
827.3623020535123	0.009933333333333454	0.0032066666666666476	0.4
827.9694839554189	0.00950000000000012	0.0031799999999999806	0.4
827.9694839554189	0.00990000000000012	0.004113333333333313	0.4
827.9696867302542	0.00990000000000012	0.004119999999999979	0.4
828.2763834208777	0.009966666666666785	0.004879999999999978	0.4
828.2763841425632	0.01000000000000012	0.005106666666666645	0.4
828.2763841425632	0.009833333333333453	0.005199999999999978	0.4
828.2763829577648	0.009966666666666785	0.005159999999999978	0.4
828.6843594983085	0.01000000000000012	0.006159999999999977	0.4
828.6815688368284	0.00990000000000012	0.006733333333333311	0.4
828.6815688368284	0.00990000000000012	0.006819999999999977	0.4
828.6856173340207	0.009866666666666786	0.006819999999999977	0.4
829.2521657721004	0.00980000000000012	0.006799999999999978	0.4
829.5020873735142	0.009766666666666786	0.011819999999999983	0.4
829.5020873735142	0.00950000000000012	0.02025333333333332	0.4
829.5021061129927	0.00990000000000012	0.021039999999999982	0.4
829.5030521760837	0.009700000000000118	0.02117333333333332	0.4
829.5031089648012	0.00990000000000012	0.021033333333333317	0.4
829.5031089648012	0.009766666666666786	0.032253333333333314	0.4
829.9083061453148	0.00980000000000012	0.038393333333333314	0.4
830.0120818692246	0.009833333333333453	0.04050666666666665	0.4
830.4209566633791	0.009833333333333453	0.04468666666666665	0.4
830.4209566633791	0.008166666666666786	0.059653333333333315	0.4
830.4193784639624	0.009466666666666786	0.059653333333333315	0.4
830.3778240969915	0.009766666666666786	0.06309999999999998	0.4
830.3778240969915	0.009433333333333451	0.06349999999999997	0.4
830.832493798855	0.00980000000000012	0.07033999999999997	0.4
831.1382421529331	0.009633333333333454	0.08342666666666664	0.4
831.6531685695306	0.009633333333333454	0.08518666666666666	0.4
831.6531685695306	0.00990000000000012	0.09212666666666666	0.4
831.6531023824233	0.009933333333333454	0.08746666666666665	0.4
831.7530315278251	0.009833333333333453	0.08583999999999999	0.4
832.1665152740145	0.009766666666666786	0.08491999999999998	0.4
832.1665152740145	0.009766666666666786	0.09702666666666665	0.4
832.1654896831596	0.009966666666666785	0.09702666666666665	0.4
832.1654697441743	0.009833333333333453	0.09746	0.4
832.9898187323554	0.009700000000000118	0.09666666666666666	0.4
832.9898187323554	0.009833333333333453	0.09382666666666667	0.4
833.2987143354571	0.009466666666666786	0.09295333333333335	0.4
833.2990858852258	0.009633333333333454	0.08786666666666665	0.4
833.3999079202323	0.009533333333333453	0.08769999999999999	0.4
833.3999079202323	0.009733333333333453	0.08863333333333333	0.4
833.3999174397106	0.009833333333333453	0.08845333333333331	0.4
833.9566886582464	0.01000000000000012	0.08934666666666664	0.4
833.9566886582464	0.01000000000000012	0.08797333333333332	0.4
833.9175222879722	0.00980000000000012	0.08657333333333331	0.4
833.9131074478524	0.009300000000000119	0.08657333333333331	0.4
834.3302588891958	0.009766666666666786	0.08997999999999998	0.4
834.3302588891958	0.009000000000000119	0.09383333333333332	0.4
834.6430519181152	0.007800000000000118	0.08936666666666666	0.4
835.3625456741202	6.666666666677775e-05	0.09195333333333333	0.4
835.3625608549393	0.0010666666666665566	0.09529333333333334	0.4
835.3625608549393	0.0006666666666665563	0.09488666666666667	0.4
835.4676250837101	0.0020333333333332243	0.09303333333333333	0.4
835.7777046207718	0.00853333333333323	0.08783999999999999	0.4
835.7777736260144	0.012166666666666567	0.08466666666666665	0.4
835.7777736260144	0.02923333333333325	0.08377999999999998	0.4
836.0886494111811	0.02923333333333325	0.08646666666666666	0.4
836.5056496606952	0.04139999999999991	0.08646666666666666	0.4
836.5056496606952	0.07133333333333318	0.09865999999999998	0.4
837.0261607998933	0.1004333333333332	0.09878666666666665	0.4
837.0263525540603	0.11656666666666654	0.10215333333333332	0.4
837.338363947892	0.12053333333333323	0.10317333333333331	0.4
837.338363947892	0.13563333333333324	0.09945999999999999	0.4
837.3384166776577	0.1411999999999999	0.10088666666666665	0.4
837.3383003388507	0.14416666666666658	0.10212666666666664	0.4
832.6216586061825	0.1434666666666666	0.10158666666666666	0.4
832.6216586061825	0.15193333333333323	0.09610666666666666	0.4
837.7551104293369	0.1710666666666666	0.08859333333333332	0.4
837.7549521691864	0.1710666666666666	0.08754666666666665	0.4
837.7549521691864	0.17853333333333327	0.08754666666666665	0.4
838.1717718103872	0.24939999999999987	0.09457999999999998	0.4
838.1718352282977	0.2956666666666665	0.09874	0.4
838.2708948066181	0.29863333333333314	0.09769333333333333	0.4
838.2708948066181	0.3411666666666665	0.09183333333333332	0.4
838.9023967931133	0.3998666666666666	0.09125333333333333	0.4
839.109372312301	0.4488	0.08903333333333333	0.4
839.109465200529	0.45239999999999997	0.08591999999999998	0.4
839.109465200529	0.45656666666666657	0.08653999999999998	0.4
839.4273204776944	0.5345666666666665	0.09441999999999999	0.4
839.5265486863517	0.5345666666666665	0.09779999999999998	0.4
839.5281993429919	0.5770333333333332	0.09963333333333331	0.4
839.5281993429919	0.5920999999999998	0.09963333333333331	0.4
839.5264872219827	0.5948333333333331	0.09948666666666665	0.4
840.3682104321977	0.6007666666666664	0.09866	0.4
840.3682104321977	0.6369333333333332	0.09712666666666667	0.4
840.6798786764394	0.6974666666666667	0.09634000000000001	0.4
840.9377753395216	0.6781	0.09279333333333332	0.4
840.9942738386007	0.6933999999999999	0.09437333333333332	0.4
840.9942738386007	0.7221333333333333	0.09621999999999999	0.4
840.9953301347135	0.6865999999999999	0.09077999999999999	0.4
841.2072859337244	0.7134333333333333	0.09348	0.4
841.2072859337244	0.7134333333333333	0.09811333333333333	0.4
841.2072611188743	0.7526333333333333	0.09999333333333332	0.4
841.5231442006352	0.7745333333333334	0.09999333333333332	0.4
841.5233585145675	0.7736333333333333	0.09813333333333332	0.4
841.5233585145675	0.7690333333333332	0.09546666666666667	0.4
841.6268644694803	0.7616999999999998	0.09445333333333333	0.4
841.6275646843652	0.7413999999999998	0.09184666666666665	0.4
841.6280482954847	0.7337333333333331	0.09044666666666665	0.4
841.6280482954847	0.7613	0.09268	0.4
842.2599541737538	0.8334666666666665	0.09965333333333333	0.4
842.2597976423854	0.8754000000000001	0.10459999999999998	0.4
842.2597976423854	0.8796999999999999	0.1050133333333333	0.4
842.2598725117733	0.8796999999999999	0.10141999999999998	0.4
843.0574567089661	0.8520333333333334	0.09958666666666664	0.4
843.1034325959205	0.8442666666666666	0.09958666666666664	0.4
843.1034325959205	0.8919666666666664	0.10421999999999997	0.4
843.1033441193773	0.8933666666666666	0.10427999999999997	0.4
843.1032559504831	0.8787999999999999	0.10321999999999998	0.4
843.1032559504831	0.8579666666666667	0.10127999999999998	0.4
843.4190584082935	0.8365333333333331	0.09763999999999999	0.4
843.4191491805169	0.8193999999999998	0.09546666666666667	0.4
844.8854801948137	0.7545666666666666	0.0894	0.4
844.8854801948137	0.7926999999999998	0.09301999999999998	0.4
844.79607958106	0.7967999999999998	0.09430666666666665	0.4
844.8991092060354	0.7459333333333332	0.08886666666666665	0.4
844.8996965571474	0.7459333333333332	0.08607333333333332	0.4
844.8996965571474	0.7202666666666666	0.08607333333333332	0.4
845.0073547192128	0.7596333333333333	0.09038666666666667	0.4
845.1140407046182	0.7635333333333333	0.09009333333333333	0.4
845.1140407046182	0.7194333333333331	0.08558666666666664	0.4
845.3201528502024	0.7605666666666665	0.09081999999999998	0.4
845.4293208509085	0.7667333333333333	0.09125333333333333	0.4
845.6440168616523	0.7451333333333333	0.08881333333333331	0.4
845.6440168616523	0.7173666666666666	0.08631333333333331	0.4
845.7488406943712	0.6585333333333332	0.08042666666666665	0.4
846.0683136696159	0.6607333333333333	0.08098666666666664	0.4
846.0683136696159	0.6509666666666666	0.08056666666666665	0.4
846.0683697820255	0.6509666666666666	0.0794533333333333	0.4
846.5980676733021	0.6387666666666665	0.0794533333333333	0.4
846.919630350476	0.6212666666666666	0.07754666666666664	0.4
846.919630350476	0.6443666666666665	0.08125999999999997	0.4
847.024286715193	0.6686	0.08397999999999999	0.4
848.5584926197021	0.6753666666666667	0.08515999999999999	0.4
848.7345095227338	0.7013333333333333	0.08928666666666665	0.4
848.7345095227338	0.6977	0.08889999999999998	0.4
848.7345717074107	0.6595000000000001	0.08401999999999997	0.4
848.839595373852	0.6228666666666666	0.07936666666666665	0.4
848.839595373852	0.6249333333333333	0.07990666666666665	0.4
849.1124408238297	0.7101333333333332	0.08926666666666667	0.4
849.3114627222059	0.7101333333333332	0.09021333333333333	0.4
849.2694767211045	0.7101999999999999	0.09149999999999998	0.4
849.2694767211045	0.7196666666666666	0.09149999999999998	0.4
849.3737814766787	0.6870333333333333	0.08753999999999999	0.4
850.6650438758368	0.6360333333333333	0.08129333333333331	0.4
850.6650438758368	0.6941	0.08889333333333332	0.4
850.77087576103	0.6773333333333333	0.08714666666666665	0.4
850.9368973758675	0.6512	0.08411333333333332	0.4
852.2788351937464	0.5654666666666665	0.07605999999999997	0.4
852.2788351937464	0.5527333333333332	0.07514666666666664	0.4
852.2780149709432	0.5424333333333332	0.07438666666666663	0.4
852.389309345434	0.5862999999999998	0.08051999999999997	0.4
852.389309345434	0.6078333333333332	0.08304666666666664	0.4
852.6027732276153	0.6078333333333332	0.08165333333333331	0.4
852.6027732276153	0.5954333333333331	0.08165333333333331	0.4
852.7669286305735	0.5943999999999998	0.08173333333333331	0.4
852.7669286305735	0.6013333333333332	0.08293999999999999	0.4
852.9269308413709	0.6181333333333333	0.08629333333333332	0.4
852.926921012827	0.6296333333333333	0.08781333333333331	0.4
852.9261903333042	0.6355333333333332	0.08907999999999999	0.4
852.9261903333042	0.6247666666666665	0.08757333333333332	0.4
853.2005372534891	0.5294333333333332	0.0750933333333333	0.4
853.2005037236887	0.5269999999999999	0.07504666666666664	0.4
853.2005085654381	0.5310333333333331	0.07552666666666662	0.4
853.2005085654381	0.5387666666666666	0.07662666666666663	0.4
853.5250312077706	0.5387666666666666	0.07516666666666663	0.4
854.5022442774954	0.5246999999999999	0.07516666666666663	0.4
854.5022442774954	0.5821999999999998	0.08498666666666665	0.4
854.6093054705567	0.5684999999999999	0.08302666666666665	0.4
854.61209240001	0.5526666666666665	0.08057999999999997	0.4
854.7686887410354	0.5579666666666666	0.08156666666666663	0.4
854.7686887410354	0.5597333333333332	0.08167999999999997	0.4
854.823002094574	0.5728999999999999	0.08303333333333332	0.4
855.0423302564562	0.5716333333333332	0.08322666666666666	0.4
856.0724289742151	0.6253333333333332	0.09305333333333332	0.4
856.0724289742151	0.6763333333333331	0.10134666666666665	0.4
856.0747952276225	0.6821666666666666	0.10199999999999998	0.4
856.1310455146748	0.6821666666666666	0.09346666666666667	0.4
856.1310455146748	0.6224333333333332	0.09473333333333332	0.4
856.1310455146748	0.6285333333333332	0.09473333333333332	0.4
856.3963365074974	0.6679999999999999	0.10097999999999999	0.4
856.6163468972985	0.6778	0.10181333333333333	0.4
856.6163468972985	0.6299999999999999	0.09597333333333331	0.4
856.616075154985	0.6499666666666666	0.09935333333333332	0.4
856.6158150737278	0.6294999999999998	0.09623333333333332	0.4
856.7288358103775	0.6267999999999999	0.09642666666666666	0.4
856.7288358103775	0.6225666666666666	0.0959	0.4
856.728897484633	0.6100666666666666	0.09381333333333333	0.4
856.836948803757	0.5631666666666665	0.08769333333333332	0.4
856.8369075353074	0.5408	0.08466666666666664	0.4
856.8369075353074	0.5408	0.08417333333333332	0.4
856.8370161913704	0.5400666666666666	0.08668	0.4
857.0531946830512	0.5573333333333333	0.08668	0.4
857.2737372372611	0.5550666666666666	0.08597999999999999	0.4
857.2737372372611	0.5771999999999998	0.08979999999999999	0.4
857.2737421046969	0.5749666666666665	0.09020666666666666	0.4
857.3802118467111	0.5139666666666666	0.08145333333333331	0.4
858.6946347142182	0.48143333333333327	0.07867999999999997	0.4
858.6946347142182	0.5127666666666665	0.08466666666666667	0.4
858.6946070262883	0.5118666666666666	0.08457333333333332	0.4
858.6946031836503	0.5028333333333332	0.08346666666666663	0.4
858.6946327947157	0.4899333333333332	0.08206666666666664	0.4
858.6946327947157	0.4778666666666665	0.08093333333333332	0.4
858.6946434758152	0.4778666666666665	0.07584666666666663	0.4
860.1222221297472	0.4443333333333333	0.07584666666666663	0.4
860.1222221297472	0.3946999999999999	0.07229999999999998	0.4
860.1222221297472	0.3909666666666666	0.07168666666666665	0.4
860.2310438236586	0.3734999999999999	0.06855999999999997	0.4
860.2309525392428	0.34936666666666655	0.06400666666666664	0.4
860.2310090965749	0.33856666666666657	0.062193333333333316	0.4
860.2310090965749	0.33623333333333316	0.06228666666666664	0.4
860.451095001923	0.36059999999999987	0.06703999999999999	0.4
860.8133950869003	0.34096666666666653	0.06427333333333332	0.4
860.5604178304766	0.3290666666666665	0.06197333333333332	0.4
860.5604178304766	0.34899999999999987	0.06526666666666664	0.4
860.6758683821117	0.34899999999999987	0.062019999999999985	0.4
860.8916728226222	0.3280333333333332	0.05674666666666663	0.4
861.000863022618	0.29843333333333316	0.05674666666666663	0.4
861.000863022618	0.32379999999999987	0.06181333333333331	0.4
861.1122942268822	0.3172333333333332	0.06063999999999998	0.4
861.1098825185574	0.2835666666666665	0.05483333333333332	0.4
861.3325461459049	0.2800666666666666	0.05382666666666664	0.4
861.3325461459049	0.2876666666666665	0.05590666666666664	0.4
862.4359141053093	0.2857999999999999	0.05906666666666665	0.4
862.5481504954738	0.26466666666666655	0.05589333333333331	0.4
862.5470792296004	0.25493333333333323	0.05399333333333331	0.4
862.5470792296004	0.24756666666666655	0.053199999999999976	0.4
862.547248049529	0.24756666666666655	0.053773333333333305	0.4
864.0968711405062	0.24516666666666656	0.057213333333333304	0.4
864.0968711405062	0.2419333333333332	0.057213333333333304	0.4
864.2106980106821	0.25616666666666654	0.06017333333333332	0.4
864.2094254558792	0.2697999999999999	0.06269333333333331	0.4
864.3639653940863	0.26496666666666663	0.06183333333333331	0.4
864.3639653940863	0.2370999999999999	0.05596666666666664	0.4
864.3178235047026	0.2325333333333332	0.0553533333333333	0.4
864.431546757523	0.23226666666666654	0.055473333333333305	0.4
864.6534521708373	0.21873333333333325	0.05161999999999998	0.4
864.6534521708373	0.2106333333333333	0.05011999999999999	0.4
864.6534602176987	0.20816666666666664	0.049339999999999995	0.4
864.6536102979139	0.20816666666666664	0.048853333333333325	0.4
864.8079904321717	0.20459999999999995	0.05099999999999998	0.4
864.8079904321717	0.2129999999999999	0.05099999999999998	0.4
865.0336517886857	0.2272666666666665	0.05483999999999997	0.4
865.2585346193962	0.21679999999999994	0.05156666666666665	0.4
865.3212606312059	0.20633333333333329	0.04944666666666665	0.4
865.3212606312059	0.20386666666666658	0.04975999999999998	0.4
866.4111338099436	0.1738666666666666	0.04682666666666665	0.4
866.4110442804143	0.16529999999999992	0.045646666666666655	0.4
866.4110442804143	0.16433333333333328	0.045379999999999976	0.4
866.6322696096183	0.17519999999999994	0.04827333333333332	0.4
867.9484895910208	0.14556666666666657	0.04460666666666665	0.4
867.9489374854645	0.14556666666666657	0.04473999999999998	0.4
867.9489374854645	0.14546666666666658	0.04250666666666665	0.4
868.1498038372887	0.14116666666666655	0.04250666666666665	0.4
868.2047896736744	0.13993333333333324	0.04165999999999998	0.4
868.3141429219786	0.13833333333333322	0.041079999999999985	0.4
868.3141429219786	0.1405666666666666	0.042586666666666655	0.4
868.3948271772778	0.1468666666666666	0.045986666666666655	0.4
868.3953365105413	0.1437999999999999	0.04552666666666665	0.4
868.6180346318008	0.13673333333333323	0.041573333333333316	0.4
868.6180346318008	0.1251333333333332	0.03913999999999998	0.4
868.6177466727657	0.12283333333333323	0.03902666666666665	0.4
868.618060401334	0.12206666666666655	0.03881333333333332	0.4
868.618060401334	0.12206666666666655	0.03846666666666664	0.4
868.7909304922985	0.12253333333333323	0.03729999999999997	0.4
868.9560268088867	0.11709999999999988	0.03729999999999997	0.4
869.0658276781951	0.11789999999999988	0.03749333333333331	0.4
869.0658276781951	0.11543333333333322	0.03713333333333331	0.4
868.2035711217721	0.13963333333333325	0.041099999999999984	0.4
868.1707279006598	0.13963333333333325	0.043639999999999984	0.4
868.1707279006598	0.14256666666666656	0.04643333333333332	0.4
867.9489119548451	0.1477999999999999	0.04643333333333332	0.4
867.9468187878012	0.1402999999999999	0.04232666666666665	0.4
867.9468187878012	0.14196666666666657	0.04293999999999998	0.4
867.8338249282914	0.15416666666666656	0.04693999999999998	0.4
866.4354215319927	0.18549999999999991	0.04895333333333332	0.4
866.4354215319927	0.1836333333333333	0.048886666666666655	0.4
866.4354215319927	0.1808666666666666	0.048519999999999994	0.4
865.2083103395858	0.18503333333333324	0.045859999999999984	0.4
864.9863481936036	0.19546666666666662	0.04758666666666665	0.4
864.7645882928692	0.21113333333333326	0.050946666666666654	0.4
864.7645882928692	0.21113333333333326	0.05511999999999997	0.4
864.7625382416467	0.22669999999999987	0.05725999999999997	0.4
864.7614140740634	0.2372999999999999	0.05725999999999997	0.4
864.6535107452205	0.21913333333333326	0.05219999999999998	0.4
864.6535107452205	0.2146333333333333	0.05070666666666666	0.4
864.4314448743269	0.22039999999999982	0.051879999999999975	0.4
864.4302911200957	0.2444333333333332	0.05853333333333332	0.4
864.4302911200957	0.24793333333333323	0.0593733333333333	0.4
864.4304477814469	0.23829999999999985	0.05675333333333332	0.4
864.2106841979453	0.2418666666666666	0.05761333333333331	0.4
864.210791846934	0.2622999999999999	0.06161333333333332	0.4
864.210791846934	0.27023333333333327	0.06259333333333332	0.4
864.2060131571894	0.27023333333333327	0.06153999999999998	0.4
863.8748432126056	0.26423333333333326	0.06019999999999998	0.4
862.6571234665621	0.2613333333333332	0.06019999999999998	0.4
862.6571234665621	0.2679666666666666	0.05687999999999998	0.4
862.5482641036713	0.2517666666666666	0.05434666666666665	0.4
862.4370223838429	0.2552999999999999	0.05482666666666664	0.4
861.3325501323559	0.2970666666666665	0.06229333333333332	0.4
861.3325501323559	0.2789666666666666	0.05492666666666665	0.4
861.1101307498479	0.2896333333333332	0.05626666666666664	0.4
861.1099895686338	0.28363333333333324	0.054413333333333314	0.4
861.0008969194355	0.29876666666666657	0.05790666666666664	0.4
861.0008969194355	0.30569999999999986	0.05909333333333332	0.4
860.891701486055	0.30569999999999986	0.058433333333333316	0.4
860.6721977420474	0.30649999999999983	0.06000666666666665	0.4
860.6721977420474	0.3159333333333331	0.06000666666666665	0.4
860.5621352577721	0.3263333333333332	0.061033333333333314	0.4
860.5620229990585	0.30336666666666645	0.05687999999999998	0.4
860.3402381123684	0.3073999999999998	0.05769999999999998	0.4
860.3402381123684	0.3377999999999998	0.06261333333333331	0.4
860.2320136750101	0.31703333333333317	0.059046666666666636	0.4
860.2319943330474	0.32179999999999986	0.059886666666666644	0.4
860.231142695737	0.3441666666666665	0.06312666666666665	0.4
860.231142695737	0.3588999999999999	0.06582666666666664	0.4
860.1183928843698	0.39876666666666655	0.07359999999999997	0.4
860.1183928843698	0.39876666666666655	0.07151999999999999	0.4
858.6945639356163	0.39376666666666654	0.07839333333333331	0.4
858.6945639356163	0.46413333333333334	0.07839333333333331	0.4
858.6945514044843	0.4656666666666666	0.07869333333333331	0.4
858.6957740960219	0.47103333333333336	0.07952666666666665	0.4
858.6957740960219	0.47699999999999987	0.08051999999999997	0.4
858.6946015958391	0.4899666666666665	0.0817933333333333	0.4
857.3819007716032	0.4969999999999999	0.0820733333333333	0.4
857.380214990297	0.47599999999999987	0.07667999999999997	0.4
857.380214990297	0.48376666666666646	0.07750666666666665	0.4
857.1764480490407	0.5183333333333333	0.08076666666666664	0.4
857.054190082972	0.5284333333333332	0.08140666666666663	0.4
856.9446829316265	0.5284333333333332	0.08731333333333331	0.4
856.9446829316265	0.5666666666666665	0.09774666666666666	0.4
856.9430914361644	0.6318333333333331	0.09774666666666666	0.4
856.8369157932301	0.5945999999999998	0.09187333333333332	0.4
856.8362520836422	0.560133333333333	0.08725333333333332	0.4
856.8362520836422	0.5681333333333332	0.08824	0.4
856.6175691753023	0.6347666666666666	0.09686666666666666	0.4
856.6174359073167	0.6606333333333332	0.10075999999999997	0.4
856.504234444866	0.6325333333333332	0.09593999999999998	0.4
856.504234444866	0.6305333333333333	0.09599333333333332	0.4
856.2895243465796	0.6545999999999998	0.09974	0.4
856.2897209646419	0.62	0.09418000000000001	0.4
856.1793563391387	0.62	0.09364	0.4
856.1793563391387	0.6209333333333332	0.09369999999999999	0.4
856.1309385090154	0.6226333333333333	0.09369999999999999	0.4
856.1309178347549	0.6383333333333333	0.09602666666666666	0.4
856.0253168519603	0.6426	0.09656666666666666	0.4
856.0253168519603	0.6492	0.09729333333333332	0.4
855.0298155368594	0.6074333333333332	0.08875333333333331	0.4
854.7671909045956	0.5821333333333331	0.08462666666666664	0.4
854.7678435927247	0.5444333333333333	0.07947999999999998	0.4
854.7678435927247	0.5369333333333333	0.07816666666666663	0.4
854.7680102265263	0.5419333333333332	0.07887999999999998	0.4
854.5022326754279	0.5694333333333332	0.08348666666666664	0.4
854.5022129645491	0.5694333333333332	0.08703999999999998	0.4
854.5022129645491	0.5989666666666664	0.08591999999999998	0.4
853.4188527910281	0.5916999999999999	0.08591999999999998	0.4
853.3096273786005	0.6045333333333331	0.08540666666666664	0.4
853.202535404383	0.5891333333333332	0.08317999999999998	0.4
853.202535404383	0.5510666666666666	0.07771999999999997	0.4
852.9271257971358	0.6357666666666666	0.08832666666666665	0.4
852.9270519992089	0.6413333333333331	0.08943999999999998	0.4
852.8223242581525	0.6387999999999998	0.08895999999999998	0.4
852.8223242581525	0.6057999999999999	0.08454666666666666	0.4
852.7689793461867	0.6030333333333332	0.08430666666666665	0.4
852.7689923698405	0.6269999999999999	0.08776666666666666	0.4
852.4449312089696	0.6269999999999999	0.08523999999999998	0.4
852.4449312089696	0.6167666666666666	0.08434666666666665	0.4
852.4449835757814	0.6191333333333333	0.08434666666666665	0.4
852.4437212013127	0.6076666666666666	0.0825533333333333	0.4
852.4437212013127	0.5634333333333332	0.07686666666666665	0.4
852.334334337179	0.5411333333333331	0.07362666666666663	0.4
852.1211894409847	0.5590999999999998	0.0758333333333333	0.4
850.6641556757173	0.6059999999999999	0.08024666666666665	0.4
850.6641556757173	0.6635666666666666	0.08545999999999998	0.4
850.6642152784488	0.6728000000000001	0.08659333333333331	0.4
849.5880856771763	0.6944666666666667	0.08839999999999999	0.4
849.2706086509554	0.6958333333333333	0.08901999999999999	0.4
849.2706086509554	0.6958333333333333	0.08920666666666666	0.4
849.2706290080392	0.6978666666666666	0.09042666666666666	0.4
848.9477306261309	0.7106666666666667	0.09042666666666666	0.4
848.8398266053752	0.7113666666666667	0.08991333333333332	0.4
848.8398266053752	0.6592333333333332	0.08358666666666664	0.4
848.8383152445475	0.6311	0.08078666666666666	0.4
848.8383152445475	0.6819	0.0867	0.4
848.8383152445475	0.6984333333333335	0.08785333333333334	0.4
848.7345021119796	0.6978333333333334	0.08802666666666664	0.4
848.4110767347752	0.6754333333333332	0.08572666666666666	0.4
847.0173887339931	0.6573666666666665	0.08265999999999998	0.4
847.0173887339931	0.6678333333333332	0.08301999999999997	0.4
846.5978782088632	0.6710666666666666	0.08357999999999999	0.4
846.4473432029931	0.6710666666666666	0.08141999999999998	0.4
845.959973389959	0.6574999999999999	0.08141999999999998	0.4
845.959973389959	0.6976333333333333	0.08397333333333332	0.4
845.7491652332108	0.7218666666666667	0.08706666666666665	0.4
845.5362859655628	0.7197666666666666	0.08710666666666667	0.4
845.3230927885454	0.7274333333333332	0.08709333333333333	0.4
845.3230927885454	0.7201	0.08617333333333332	0.4
845.2152314058649	0.7100666666666666	0.08479333333333332	0.4
845.2162813060302	0.7034	0.08404666666666664	0.4
845.0061718892292	0.7612666666666666	0.09047333333333332	0.4
845.0061718892292	0.7879333333333332	0.09326000000000001	0.4
845.0060103360815	0.7879333333333332	0.09122	0.4
844.8982174915781	0.7674333333333332	0.08437333333333331	0.4
844.8982174915781	0.7053666666666665	0.08437333333333331	0.4
844.8979748337957	0.7177333333333333	0.08565999999999997	0.4
843.6296847533822	0.7590999999999999	0.09003333333333333	0.4
843.6305687492733	0.8382666666666665	0.09794666666666665	0.4
843.6305687492733	0.7600666666666666	0.09005999999999997	0.4
843.2065294010935	0.7523333333333333	0.0881933333333333	0.4
843.2065294010935	0.8462000000000001	0.09881999999999998	0.4
842.9947460299725	0.8523000000000002	0.09984666666666664	0.4
842.9947460299725	0.7900333333333333	0.09251333333333332	0.4
842.4694479629588	0.8130999999999998	0.09570666666666668	0.4
842.1515692985298	0.8130999999999998	0.09061333333333332	0.4
842.1515692985298	0.7603666666666665	0.09094666666666666	0.4
842.1515692985298	0.7596333333333332	0.09094666666666666	0.4
841.7315959483766	0.7416999999999999	0.08900666666666665	0.4
841.731354885073	0.8359333333333332	0.10165999999999999	0.4
841.7309655232051	0.8401	0.10225999999999998	0.4
841.7309655232051	0.8515666666666666	0.10326666666666665	0.4
841.4153167292088	0.8434666666666666	0.10399999999999997	0.4
841.4152847371432	0.8519999999999999	0.10529999999999998	0.4
841.4151551943178	0.8441999999999998	0.10495333333333332	0.4
841.4151551943178	0.8465333333333331	0.10489999999999998	0.4
840.9955235739047	0.7033999999999999	0.09118666666666667	0.4
840.9954840583824	0.7033999999999999	0.08932666666666665	0.4
840.9954840583824	0.6769333333333333	0.09783333333333331	0.4
840.9959410535635	0.7348999999999999	0.09783333333333331	0.4
840.8914963506081	0.7798666666666668	0.10448666666666664	0.4
840.5753311611527	0.7787666666666667	0.10457999999999998	0.4
840.5753311611527	0.7350666666666666	0.10215333333333332	0.4
839.5269914669091	0.5778333333333332	0.09611333333333331	0.4
839.5279446541497	0.5757666666666665	0.09745333333333332	0.4
839.5266710029595	0.5773666666666666	0.09765333333333331	0.4
839.5266710029595	0.5773333333333333	0.09779999999999998	0.4
839.5283235272717	0.5396333333333332	0.09414666666666667	0.4
839.1093355174277	0.4602333333333333	0.08680666666666666	0.4
839.1092087523393	0.4602333333333333	0.08716666666666666	0.4
839.1092087523393	0.46059999999999995	0.08819999999999999	0.4
838.6921849495583	0.4620666666666667	0.08819999999999999	0.4
838.1720941679514	0.44893333333333324	0.09447999999999998	0.4
838.1720941679514	0.4121999999999999	0.09799333333333332	0.4
838.1724894526805	0.28696666666666654	0.09247999999999999	0.4
838.1702951424573	0.2796333333333333	0.09425333333333333	0.4
837.7547662334584	0.27966666666666656	0.09459333333333333	0.4
837.7547662334584	0.24976666666666658	0.09308666666666668	0.4
837.754965102048	0.1894333333333333	0.08925999999999999	0.4
837.3382229372988	0.18163333333333326	0.08992666666666665	0.4
837.3386945574082	0.14903333333333324	0.09432666666666666	0.4
837.3386945574082	0.14903333333333324	0.09645333333333334	0.4
837.3389001012857	0.13886666666666656	0.09598666666666666	0.4
837.2320092330652	0.13566666666666655	0.09598666666666666	0.4
837.2324034957672	0.1341999999999999	0.09570666666666665	0.4
837.2324034957672	0.1265999999999999	0.09674666666666668	0.4
836.8161731537016	0.09786666666666652	0.09405333333333334	0.4
832.9100137129268	0.08669999999999985	0.09303333333333332	0.4
832.9100137129268	0.07673333333333318	0.09460666666666666	0.4
836.5045245235276	0.054833333333333185	0.09188	0.4
835.7777084097007	0.036899999999999926	0.08621999999999999	0.4
835.3625238002762	0.01833333333333324	0.09025999999999999	0.4
835.3625238002762	0.005599999999999894	0.09468	0.4
835.3631485795121	0.005599999999999894	0.09651999999999998	0.4
835.3625364450002	0.003566666666666559	0.09710666666666666	0.4
835.3623790608676	0.006133333333333228	0.09710666666666666	0.4
835.3623790608676	0.0028333333333332247	0.09528666666666666	0.4
834.7406102370533	0.0003333333333332226	0.09274	0.4
834.3279122667208	0.007333333333333451	0.08922	0.4
834.3279122667208	0.006900000000000116	0.09410000000000002	0.4
834.0610808149445	0.009133333333333453	0.09192	0.4
833.9174964707933	0.007966666666666783	0.08708666666666666	0.4
833.3978494071939	0.008600000000000118	0.08752666666666666	0.4
833.3978494071939	0.009433333333333451	0.09073999999999999	0.4
833.3989925230081	0.00980000000000012	0.09068666666666664	0.4
833.442589404809	0.00980000000000012	0.08973333333333332	0.4
833.2965277041427	0.009600000000000119	0.08657333333333331	0.4
833.2965277041427	0.009333333333333452	0.08657333333333331	0.4
832.4735224551309	0.009633333333333454	0.09183333333333332	0.4
832.1652131884424	0.008933333333333453	0.09048666666666666	0.4
831.7525555906034	0.008800000000000118	0.09445333333333333	0.4
831.7525555906034	0.00920000000000012	0.08621999999999999	0.4
831.7970906381922	0.009133333333333453	0.08586666666666666	0.4
831.7529441316682	0.009533333333333453	0.08617999999999999	0.4
831.7529441316682	0.009133333333333453	0.08643999999999999	0.4
831.6529732444135	0.009266666666666786	0.08991999999999999	0.4
831.1372625082965	0.008233333333333452	0.08405999999999998	0.4
830.5235299340011	0.008233333333333452	0.07929999999999997	0.4
830.5235299340011	0.007400000000000117	0.07215999999999996	0.4
830.423000946675	0.009866666666666786	0.07215999999999996	0.4
830.5224556723698	0.009533333333333453	0.06864666666666665	0.4
830.011495385798	0.009466666666666786	0.06812666666666665	0.4
830.011495385798	0.008000000000000118	0.05479999999999998	0.4
830.0118309527701	0.009633333333333454	0.04175333333333331	0.4
829.9112896447969	0.009533333333333453	0.040426666666666645	0.4
829.9112896447969	0.009766666666666786	0.037553333333333314	0.4
829.5021018932399	0.009466666666666786	0.021213333333333317	0.4
829.502123100501	0.009233333333333453	0.02094666666666665	0.4
829.5031356961609	0.009600000000000119	0.02079333333333332	0.4
829.5031356961609	0.009600000000000119	0.020399999999999984	0.4
829.399611387621	0.00840000000000012	0.017519999999999987	0.4
828.6857022728909	0.008600000000000118	0.017519999999999987	0.4
828.6843456892749	0.010033333333333455	0.006939999999999979	0.4
828.6843456892749	0.009866666666666786	0.006773333333333311	0.4
828.2773108231215	0.009600000000000119	0.0062933333333333105	0.4
828.2773069138351	0.009566666666666786	0.005273333333333311	0.4
828.277386638325	0.009866666666666786	0.005226666666666644	0.4
828.277386638325	0.009766666666666786	0.00515333333333331	0.4
828.0277293981729	0.009666666666666787	0.005026666666666645	0.4
828.0732970990674	0.00940000000000012	0.004499999999999978	0.4
828.0732970990674	0.00950000000000012	0.004279999999999978	0.4
827.9724860587445	0.00950000000000012	0.003933333333333311	0.4
827.0543440169984	0.009333333333333452	0.003933333333333311	0.4
826.954695843159	0.009866666666666786	0.003006666666666648	0.4
826.954695843159	0.009633333333333454	0.003053333333333314	0.4
826.9564796163089	0.009700000000000118	0.0029799999999999814	0.4
826.0434473343048	0.009866666666666786	0.0029599999999999813	0.4
826.0434473343048	0.00990000000000012	0.002673333333333315	0.4
826.0434473343048	0.009566666666666786	0.002713333333333315	0.4
826.0432822898024	0.009433333333333451	0.0027866666666666482	0.4
826.043204777706	0.009666666666666787	0.0027733333333333156	0.4
825.7392595039778	0.00980000000000012	0.0027199999999999815	0.4
825.7392595039778	0.00980000000000012	0.0027466666666666486	0.4
825.7382777452967	0.00950000000000012	0.0027466666666666486	0.4
825.7407952267921	0.009866666666666786	0.0027266666666666477	0.4
825.7407952267921	0.009666666666666787	0.0025999999999999817	0.4
825.333591555947	0.009833333333333453	0.002533333333333315	0.4
824.8305801864583	0.00990000000000012	0.002593333333333315	0.4
824.7276194802381	0.009966666666666785	0.0026399999999999818	0.4
824.7276194802381	0.00990000000000012	0.002753333333333315	0.4
824.4262960433468	0.009833333333333453	0.0026133333333333147	0.4
824.4264658339501	0.00990000000000012	0.002599999999999982	0.4
824.4264358844918	0.009933333333333454	0.002693333333333314	0.4
824.4264358844918	0.009933333333333454	0.002566666666666648	0.4
824.021176120596	0.009833333333333453	0.0026133333333333156	0.4
824.021176120596	0.009866666666666786	0.0026133333333333156	0.4
823.5665103706674	0.00990000000000012	0.0025999999999999817	0.4
823.5665103706674	0.009700000000000118	0.002599999999999982	0.4
822.5722409282306	0.00980000000000012	0.002533333333333315	0.4
822.4823282586318	0.00980000000000012	0.002573333333333315	0.4
822.3143628417649	0.00990000000000012	0.002599999999999982	0.4
822.3143628417649	0.009966666666666785	0.0026466666666666483	0.4
822.3133501337167	0.00990000000000012	0.002606666666666648	0.4
822.3133392422743	0.00990000000000012	0.002659999999999982	0.4
822.2139054122557	0.009866666666666786	0.0026733333333333145	0.4
822.2139054122557	0.009866666666666786	0.002673333333333315	0.4
822.2139415985494	0.00990000000000012	0.0026266666666666483	0.4
821.9123866099575	0.009833333333333453	0.0026266666666666483	0.4
821.9123403604855	0.009833333333333453	0.002659999999999982	0.4
821.9123403604855	0.00980000000000012	0.0025333333333333154	0.4
821.069209232608	0.009966666666666785	0.002499999999999982	0.4
821.1086309157333	0.009933333333333454	0.002639999999999982	0.4
821.1088209772306	0.00990000000000012	0.0025133333333333154	0.4
821.1088209772306	0.009533333333333453	0.0025199999999999815	0.4
820.7335991674668	0.009866666666666786	0.002659999999999981	0.4
820.7780275031272	0.009633333333333454	0.002653333333333315	0.4
820.7780275031272	0.009633333333333454	0.0026266666666666483	0.4
820.6133517849246	0.009633333333333454	0.0026933333333333145	0.4
