wavelength(nm)	flourescence PMT(V)	ti_saph Power (V)	Gain (V)
750.2448297246506	0.06433333333333327	2.7902666666666667	1.0
750.2448297246506	0.06053333333333327	2.874533333333333	1.0
750.2459475007901	0.061866666666666605	2.900933333333333	1.0
750.2459475007901	0.06683333333333327	2.895333333333333	1.0
750.2459475007901	0.05939999999999994	2.844	1.0
750.9911795898355	0.058299999999999935	2.9148	1.0
750.9911795898355	0.05723333333333328	2.9198666666666666	1.0
750.9905063835407	0.061433333333333284	2.8568000000000002	1.0
750.9905063835407	0.061433333333333284	2.803866666666667	1.0
751.9964615152329	0.05589999999999994	2.7674666666666665	1.0
751.9964615152329	0.05886666666666661	2.7674666666666665	1.0
751.9964615152329	0.0605666666666666	2.8804	1.0
752.1611049255272	0.05939999999999993	3.0186666666666664	1.0
752.1611049255272	0.06536666666666661	3.0869333333333335	1.0
752.912156732891	0.06316666666666661	2.9346666666666668	1.0
752.912156732891	0.059033333333333264	2.768266666666667	1.0
752.912156732891	0.05833333333333327	2.752	1.0
752.9121244040464	0.058299999999999935	2.7490666666666663	1.0
752.9121244040464	0.05886666666666661	2.7638666666666665	1.0
752.9122876017726	0.057599999999999936	2.7992000000000004	1.0
752.9122876017726	0.058299999999999935	3.0208	1.0
753.2484413086135	0.058299999999999935	3.0378666666666665	1.0
753.2484413086135	0.05879999999999994	3.037733333333333	1.0
753.2484413086135	0.062299999999999946	2.9787999999999997	1.0
753.2484413086135	0.058599999999999944	2.9787999999999997	1.0
753.2484413086135	0.059533333333333285	2.8796	1.0
753.9232797998595	0.06186666666666662	2.9969333333333332	1.0
753.9232797998595	0.06016666666666661	3.0304	1.0
753.9232797998595	0.06029999999999994	2.9749333333333334	1.0
753.9232797998595	0.06079999999999994	3.0189333333333326	1.0
753.9232797998595	0.05533333333333327	3.0864000000000003	1.0
755.0985873509602	0.06163333333333327	3.1693333333333333	1.0
755.0985873509602	0.05853333333333327	3.0717333333333334	1.0
755.8550577047355	0.06196666666666661	2.903333333333333	1.0
755.8550577047355	0.05823333333333327	2.838133333333333	1.0
755.8550577047355	0.05823333333333327	2.8253333333333335	1.0
755.8536470757524	0.06153333333333328	2.8	1.0
755.8536470757524	0.06596666666666662	2.8	1.0
756.1136871925037	0.06296666666666662	2.8136000000000005	1.0
756.1136871925037	0.06156666666666662	3.0141333333333336	1.0
756.1136871925037	0.062233333333333266	3.1457333333333333	1.0
756.1950901259461	0.062466666666666615	3.1168000000000005	1.0
756.1950901259461	0.05983333333333327	3.0643999999999996	1.0
756.5332567307978	0.06216666666666661	2.9456	1.0
756.5332567307978	0.058299999999999935	2.9356000000000004	1.0
757.635061013746	0.057933333333333274	2.936	1.0
757.635061013746	0.05899999999999994	2.9141333333333335	1.0
757.635061013746	0.060699999999999935	2.987866666666667	1.0
757.7166830779158	0.060699999999999935	3.026133333333333	1.0
757.7166830779158	0.05589999999999994	3.0746666666666664	1.0
757.9719638860411	0.05879999999999994	3.1289333333333333	1.0
757.9719638860411	0.060633333333333275	3.1289333333333333	1.0
757.9719638860411	0.06259999999999993	3.2356000000000003	1.0
757.9746462779278	0.060099999999999945	3.2264000000000004	1.0
757.9746462779278	0.06233333333333327	3.0090666666666666	1.0
758.7416475191859	0.05839999999999994	2.869733333333333	1.0
758.7416475191859	0.06053333333333327	2.864133333333333	1.0
759.0784048854466	0.06259999999999993	2.879733333333333	1.0
759.0784048854466	0.06103333333333327	3.122666666666667	1.0
759.0784048854466	0.0605666666666666	3.32	1.0
759.0793282923037	0.06043333333333327	3.3661333333333334	1.0
759.0793282923037	0.06333333333333327	3.264266666666667	1.0
759.0830429490262	0.06333333333333327	3.1633333333333336	1.0
759.0830429490262	0.06006666666666661	3.3498666666666668	1.0
759.0830429490262	0.06659999999999994	3.3498666666666668	1.0
761.8981253088895	0.05666666666666661	3.2010666666666663	1.0
761.8981253088895	0.059099999999999944	3.3072000000000004	1.0
761.894299473392	0.057733333333333275	3.3710666666666667	1.0
761.894299473392	0.05943333333333328	3.3872000000000004	1.0
762.0717227075089	0.06326666666666661	3.4781333333333335	1.0
762.0717227075089	0.05999999999999994	3.4685333333333332	1.0
762.0717227075089	0.058766666666666606	3.2957333333333336	1.0
762.1556488880221	0.05879999999999993	3.1166666666666667	1.0
762.1556488880221	0.057099999999999936	3.0981333333333336	1.0
762.4186935042092	0.057099999999999936	3.1004000000000005	1.0
762.4186935042092	0.0549666666666666	2.8862666666666663	1.0
762.4186935042092	0.06139999999999995	2.8862666666666663	1.0
763.6183617352988	0.055366666666666606	3.1265333333333336	1.0
763.6183617352988	0.06153333333333328	3.2681333333333336	1.0
763.6208501538354	0.05983333333333327	3.3118666666666674	1.0
763.6208501538354	0.05999999999999995	3.3168000000000006	1.0
763.9621533785235	0.06053333333333327	3.338	1.0
763.9621533785235	0.055966666666666616	3.4228000000000005	1.0
763.9621533785235	0.06159999999999994	3.479333333333334	1.0
763.9621745733995	0.06119999999999994	3.48	1.0
763.9621745733995	0.06033333333333327	3.480666666666667	1.0
764.0490258462033	0.05856666666666662	3.4685333333333332	1.0
764.0490258462033	0.05856666666666662	3.452266666666667	1.0
764.0079010828973	0.05893333333333328	3.477066666666666	1.0
764.0079010828973	0.058199999999999946	3.477066666666666	1.0
764.0079010828973	0.053966666666666614	3.117466666666667	1.0
764.8243721879435	0.057999999999999934	3.0273333333333325	1.0
764.8243721879435	0.059033333333333264	3.0343999999999998	1.0
764.8243153477171	0.06196666666666661	3.0267999999999997	1.0
764.8243153477171	0.06553333333333328	3.0354666666666663	1.0
764.8243153477171	0.06436666666666661	3.117866666666666	1.0
764.9084814018025	0.06103333333333327	3.3896	1.0
764.9084814018025	0.05923333333333327	3.5645333333333338	1.0
764.9084814018025	0.057833333333333264	3.632933333333333	1.0
764.9084814018025	0.06123333333333328	3.592133333333333	1.0
764.9084031285474	0.059799999999999943	3.521466666666667	1.0
764.9084031285474	0.059799999999999943	3.3905333333333334	1.0
764.9084031285474	0.06326666666666661	3.3644	1.0
765.4361310274967	0.05896666666666661	3.3644	1.0
765.4361310274967	0.06149999999999994	3.3376	1.0
765.5215191959556	0.06036666666666662	3.3585333333333334	1.0
765.5215191959556	0.059466666666666605	3.3698666666666663	1.0
765.5215191959556	0.06036666666666662	3.3753333333333333	1.0
765.868656096142	0.06143333333333327	3.1687999999999996	1.0
765.868656096142	0.06136666666666661	3.2981333333333334	1.0
765.8679240645481	0.05999999999999994	3.3238666666666665	1.0
765.8679240645481	0.06179999999999995	3.3042666666666674	1.0
766.9940880025356	0.05983333333333327	3.4512000000000005	1.0
766.9940880025356	0.05969999999999994	3.1276	1.0
766.9940880025356	0.05969999999999994	3.179066666666667	1.0
767.0794469202199	0.06009999999999993	3.375466666666667	1.0
767.0794469202199	0.06123333333333328	3.375466666666667	1.0
767.1635571499371	0.05856666666666661	3.5849333333333333	1.0
767.1635571499371	0.05899999999999994	3.732266666666667	1.0
767.1635571499371	0.06489999999999994	3.6784	1.0
767.1635571499371	0.05963333333333327	3.4703999999999997	1.0
767.1635571499371	0.058366666666666615	3.4544000000000006	1.0
767.1635571499371	0.05973333333333327	3.6658666666666657	1.0
767.1635571499371	0.06203333333333328	3.782533333333334	1.0
767.9509208654382	0.06093333333333326	3.768533333333334	1.0
767.9509208654382	0.05689999999999993	3.415600000000001	1.0
767.9509208654382	0.05879999999999993	3.4552000000000005	1.0
768.128915307584	0.05879999999999993	3.4642666666666675	1.0
768.128915307584	0.06263333333333328	3.426933333333333	1.0
768.7360735677084	0.059533333333333285	3.426933333333333	1.0
768.7360735677084	0.06103333333333327	3.494	1.0
768.7360735677084	0.0567666666666666	3.3422666666666667	1.0
768.8297543106809	0.06156666666666662	3.5178666666666665	1.0
768.8297543106809	0.06059999999999994	3.255866666666667	1.0
768.9158510730463	0.05896666666666661	3.192933333333333	1.0
768.9158510730463	0.0625666666666666	3.256933333333334	1.0
759.0778022318817	0.060099999999999945	3.4588000000000005	1.0
759.0778022318817	0.061899999999999955	3.4248000000000007	1.0
759.0778022318817	0.059499999999999935	3.4728000000000003	1.0
770.1366554233284	0.06423333333333327	3.474	1.0
770.1366554233284	0.06423333333333327	3.478	1.0
770.1366534696508	0.06479999999999994	3.477866666666667	1.0
770.1366534696508	0.05923333333333327	3.4742666666666673	1.0
770.1366534696508	0.061299999999999945	3.4742666666666673	1.0
770.9257846498068	0.06623333333333328	3.3720000000000003	1.0
770.9257846498068	0.06036666666666662	3.5664000000000002	1.0
770.928067348013	0.06139999999999995	3.6024000000000003	1.0
770.928067348013	0.05969999999999994	3.641466666666666	1.0
771.0108466816089	0.06099999999999994	3.6566666666666667	1.0
771.0108466816089	0.06459999999999994	3.6265333333333336	1.0
771.0108466816089	0.05933333333333328	3.436266666666667	1.0
771.715993061517	0.059333333333333266	3.5488000000000004	1.0
771.715993061517	0.06353333333333328	3.5605333333333338	1.0
771.9844098599154	0.06293333333333327	3.4658666666666673	1.0
771.9844098599154	0.06413333333333328	3.3597333333333337	1.0
771.9843127386628	0.06413333333333328	3.3442666666666665	1.0
771.9843127386628	0.0650666666666666	3.3696	1.0
771.9843127386628	0.0624666666666666	3.3636	1.0
773.2178451703754	0.05609999999999995	3.3636	1.0
773.2178451703754	0.06549999999999995	3.3921333333333332	1.0
773.2191790325462	0.06476666666666663	3.4277333333333333	1.0
773.2191790325462	0.061133333333333276	3.5171999999999994	1.0
773.2191790325462	0.06573333333333327	3.539466666666667	1.0
773.9274202991794	0.05966666666666662	3.4805333333333337	1.0
773.9274202991794	0.06426666666666661	3.4734666666666674	1.0
774.011318089937	0.061533333333333266	3.467066666666667	1.0
774.011318089937	0.06299999999999994	3.5956	1.0
774.2867764188238	0.05719999999999994	3.6997333333333335	1.0
774.2867764188238	0.05719999999999994	3.7187999999999994	1.0
774.2867764188238	0.060666666666666605	3.6530666666666662	1.0
774.8121402217955	0.06386666666666661	3.6530666666666662	1.0
774.8121402217955	0.06359999999999995	3.7906666666666666	1.0
774.8121402217955	0.06269999999999994	3.6744000000000003	1.0
774.8121402217955	0.06596666666666662	3.4858666666666664	1.0
774.8121402217955	0.06373333333333328	3.48	1.0
775.0812569465752	0.06423333333333327	3.465600000000001	1.0
775.0812569465752	0.06013333333333327	3.4273333333333333	1.0
775.0812569465752	0.06366666666666661	3.4068	1.0
775.0812569465752	0.06043333333333327	3.767333333333334	1.0
775.0812569465752	0.06563333333333328	3.5844000000000005	1.0
775.0812569465752	0.06593333333333327	3.4833333333333334	1.0
775.0812569465752	0.06593333333333327	3.7176000000000005	1.0
776.6837751052085	0.06509999999999995	3.9190666666666667	1.0
776.6837751052085	0.06463333333333328	3.9190666666666667	1.0
777.0393054266455	0.06609999999999995	3.660133333333333	1.0
777.0393054266455	0.06193333333333328	3.639733333333332	1.0
777.0393054266455	0.06369999999999995	3.6253333333333324	1.0
777.1276709081696	0.06319999999999995	3.660666666666666	1.0
777.1276709081696	0.06549999999999995	3.8216	1.0
777.3175810865165	0.06646666666666662	3.883733333333333	1.0
777.3175810865165	0.06496666666666662	3.9079999999999995	1.0
777.8449818945397	0.06606666666666662	3.914533333333334	1.0
777.8449818945397	0.06703333333333328	3.8709333333333333	1.0
777.8449818945397	0.06799999999999995	4.152533333333334	1.0
778.2053402032277	0.06799999999999995	3.924399999999999	1.0
778.2053402032277	0.06416666666666662	3.829333333333333	1.0
778.2030076238136	0.06563333333333328	3.829333333333333	1.0
778.2030076238136	0.06903333333333328	3.831466666666667	1.0
778.2030076238136	0.0691333333333333	3.6297333333333337	1.0
779.413960305633	0.06983333333333329	3.5977333333333337	1.0
779.413960305633	0.06876666666666661	3.892933333333333	1.0
779.3697218006783	0.07369999999999995	3.8349333333333333	1.0
779.3697218006783	0.07143333333333328	3.8450666666666664	1.0
780.09427126342	0.07093333333333329	3.837866666666667	1.0
780.09427126342	0.07463333333333329	3.885333333333333	1.0
780.09427126342	0.07356666666666661	3.7450666666666668	1.0
780.1802708431743	0.07356666666666661	3.647466666666667	1.0
780.1802708431743	0.0734333333333333	3.776266666666667	1.0
780.5398706317967	0.07283333333333328	3.776266666666667	1.0
780.5398706317967	0.07149999999999995	4.005199999999999	1.0
780.5398706317967	0.07503333333333329	4.2001333333333335	1.0
780.5399144616547	0.07049999999999995	4.205733333333333	1.0
780.5399144616547	0.07489999999999995	4.0032000000000005	1.0
781.3515871042904	0.08406666666666661	3.923866666666666	1.0
781.3515871042904	0.07769999999999996	3.8797333333333337	1.0
781.3506154993645	0.07939999999999996	3.8889333333333327	1.0
781.3506154993645	0.07729999999999995	3.9543999999999997	1.0
781.3506154993645	0.07989999999999994	3.9790666666666668	1.0
781.6257446480898	0.07809999999999995	3.6349333333333336	1.0
781.6257446480898	0.07809999999999995	3.8266666666666667	1.0
782.6175896705191	0.07886666666666661	3.721066666666667	1.0
782.6175896705191	0.07839999999999996	3.721066666666667	1.0
782.6175896705191	0.08133333333333329	3.728	1.0
782.6175896705191	0.0842333333333333	3.7790666666666666	1.0
782.6175896705191	0.08713333333333328	3.857866666666667	1.0
783.3460785804455	0.08356666666666662	3.7665333333333333	1.0
783.3460785804455	0.08446666666666663	3.744133333333334	1.0
783.6226609021968	0.08746666666666662	3.738933333333334	1.0
783.6226609021968	0.09123333333333329	3.6635999999999997	1.0
783.6226609021968	0.08723333333333329	3.838666666666667	1.0
783.706777590329	0.08806666666666663	4.147866666666667	1.0
783.706777590329	0.09179999999999995	4.2678666666666665	1.0
784.4353759072598	0.09179999999999995	4.180133333333333	1.0
784.4353759072598	0.09189999999999995	4.430933333333334	1.0
784.4353759072598	0.09976666666666663	4.430933333333334	1.0
784.5235482946102	0.1015333333333333	4.297466666666668	1.0
784.5235482946102	0.09249999999999996	3.980533333333333	1.0
784.5278987112184	0.09333333333333328	3.8805333333333327	1.0
784.5278987112184	0.09793333333333329	3.9139999999999993	1.0
784.5756974751798	0.09989999999999995	3.906933333333333	1.0
784.5756974751798	0.09786666666666662	3.77	1.0
784.5756974751798	0.09469999999999996	3.8104000000000005	1.0
785.7138748007213	0.11706666666666664	4.170266666666667	1.0
785.7138748007213	0.11209999999999999	4.271066666666666	1.0
786.075100136231	0.11333333333333329	3.9948	1.0
786.075100136231	0.11333333333333329	3.8655999999999993	1.0
786.075100136231	0.11573333333333329	4.1264	1.0
786.44442763016	0.1199333333333333	4.1264	1.0
786.44442763016	0.11739999999999995	4.120133333333333	1.0
786.7217145652223	0.1223333333333333	4.138400000000001	1.0
786.7217145652223	0.12766666666666662	4.063733333333333	1.0
786.8109884001688	0.12153333333333328	4.0172	1.0
786.8109884001688	0.1287666666666666	4.15	1.0
786.8109884001688	0.13046666666666662	4.360933333333334	1.0
787.6341533594322	0.14176666666666662	4.249733333333333	1.0
787.6341533594322	0.14793333333333328	4.438266666666668	1.0
787.7265105579809	0.13929999999999995	4.314533333333333	1.0
787.7265105579809	0.14689999999999995	4.144266666666668	1.0
787.7265105579809	0.14689999999999995	3.9642666666666657	1.0
787.7285516123814	0.13856666666666662	4.116133333333333	1.0
787.7285516123814	0.14219999999999994	4.116133333333333	1.0
788.0065191324736	0.14593333333333328	3.9366666666666665	1.0
788.0065191324736	0.14753333333333327	3.7448	1.0
789.2014564895684	0.16233333333333325	3.7985333333333333	1.0
789.2014564895684	0.19036666666666657	3.956933333333333	1.0
789.2014564895684	0.1983999999999999	3.8987999999999996	1.0
789.6627052869428	0.22596666666666654	4.192666666666667	1.0
789.6627052869428	0.2267666666666666	4.2	1.0
790.0343857768238	0.22616666666666654	4.2	1.0
790.0343857768238	0.24699999999999994	4.125066666666667	1.0
790.0343857768238	0.24699999999999994	4.2208	1.0
790.0333635040178	0.2497999999999999	4.3144	1.0
790.0333635040178	0.25363333333333327	4.393466666666668	1.0
790.862061484962	0.2595999999999999	4.393466666666668	1.0
790.862061484962	0.2998333333333333	4.272533333333334	1.0
790.8626090534971	0.3070666666666666	4.3028	1.0
790.8626090534971	0.3053999999999999	4.430000000000001	1.0
790.8626090534971	0.30923333333333325	4.217466666666668	1.0
790.9540853167123	0.2922666666666666	3.9774666666666665	1.0
790.9540853167123	0.3184666666666666	4.030266666666667	1.0
791.2370500869933	0.3112666666666666	3.8040000000000003	1.0
791.2370500869933	0.30079999999999996	3.7602666666666678	1.0
791.2370500869933	0.3064333333333333	3.8066666666666666	1.0
792.4427869794984	0.3064333333333333	4.068266666666667	1.0
792.4427869794984	0.43816666666666665	4.0832	1.0
792.4407512994047	0.4402999999999999	4.0832	1.0
792.4407512994047	0.43349999999999994	3.882133333333333	1.0
792.9048274432233	0.5063666666666665	4.197733333333333	1.0
792.9048274432233	0.5298666666666666	4.365066666666667	1.0
792.9048274432233	0.5182333333333332	4.150266666666666	1.0
793.1903489794679	0.5411999999999999	4.034533333333334	1.0
793.1903489794679	0.5488999999999999	4.03	1.0
793.1903489794679	0.5822666666666666	4.196266666666666	1.0
793.1903489794679	0.6134666666666665	4.516933333333333	1.0
793.1903489794679	0.6134666666666665	4.562266666666666	1.0
793.6932349366446	0.6788333333333333	4.309333333333334	1.0
793.6932349366446	0.6960666666666666	4.309333333333334	1.0
794.1201886778001	0.7908333333333334	4.548666666666667	1.0
794.1201886778001	0.8004999999999999	4.4048	1.0
794.3072452901531	0.8043	4.338666666666668	1.0
794.3072452901531	0.8779666666666667	4.5968	1.0
794.3072452901531	0.8853333333333332	4.6136	1.0
794.490881982816	0.8750999999999999	4.3252	1.0
794.490881982816	0.8573666666666664	4.136133333333333	1.0
794.4917191305597	0.8450333333333333	4.065333333333333	1.0
794.4917191305597	0.8234666666666666	4.114533333333334	1.0
794.4917191305597	0.8748999999999999	4.601999999999999	1.0
794.117956377503	0.8439333333333333	4.519733333333334	1.0
794.117956377503	0.8439333333333333	4.446000000000001	1.0
794.0254031495231	0.7971333333333332	4.3980000000000015	1.0
794.0254031495231	0.7642	4.3980000000000015	1.0
793.5593175978969	0.7510333333333332	4.441333333333334	1.0
793.5593175978969	0.6843333333333332	4.503866666666668	1.0
793.5593175978969	0.6355	4.5192	1.0
793.1887883017148	0.6157999999999999	4.399733333333335	1.0
793.1887883017148	0.5571666666666666	4.108133333333334	1.0
793.1886442240977	0.5439333333333333	4.1092	1.0
793.1886442240977	0.5408	4.112933333333333	1.0
792.7224712256995	0.5167666666666666	4.245066666666666	1.0
792.7224712256995	0.4684999999999999	4.1404	1.0
792.7224712256995	0.4684999999999999	3.9833333333333325	1.0
792.3526023974055	0.4376333333333332	3.9833333333333325	1.0
792.3526023974055	0.4423333333333333	4.172133333333333	1.0
791.2336135188438	0.3017999999999999	3.8425333333333342	1.0
791.2336135188438	0.31113333333333326	3.8000000000000007	1.0
791.2336135188438	0.29219999999999996	3.7997333333333345	1.0
791.0577745559798	0.3067666666666666	3.9126666666666665	1.0
791.0577745559798	0.31173333333333325	4.412000000000001	1.0
790.7728367863954	0.3103999999999999	4.5064	1.0
790.7728367863954	0.29826666666666657	4.1341333333333345	1.0
790.7728367863954	0.29929999999999995	4.141733333333334	1.0
790.7728367863954	0.2511999999999999	4.089866666666667	1.0
790.7728367863954	0.2511999999999999	3.9074666666666658	1.0
790.0334832817107	0.2424333333333332	3.9074666666666658	1.0
790.0334832817107	0.23296666666666657	3.8795999999999995	1.0
790.0334813567782	0.22626666666666656	3.8681333333333336	1.0
790.0334813567782	0.2334666666666666	3.8501333333333334	1.0
790.0334813567782	0.22613333333333324	4.224266666666667	1.0
789.6630789314821	0.23496666666666655	4.360666666666668	1.0
789.6630789314821	0.2303666666666666	4.329333333333334	1.0
789.2010951414983	0.2076999999999999	4.12	1.0
789.2010951414983	0.18906666666666658	4.090666666666667	1.0
788.0061632554557	0.15096666666666658	3.8781333333333325	1.0
788.0061632554557	0.1413666666666666	3.882133333333333	1.0
788.0061632554557	0.1413666666666666	4.177333333333333	1.0
787.725629668339	0.14623333333333327	4.199866666666667	1.0
787.725629668339	0.14219999999999994	4.198799999999999	1.0
787.6391087493007	0.14923333333333327	4.198799999999999	1.0
787.6391087493007	0.14333333333333328	4.183066666666667	1.0
787.6391087493007	0.14999999999999994	4.258266666666667	1.0
786.9018444442798	0.13939999999999994	4.094533333333334	1.0
786.9018444442798	0.1320666666666666	4.2813333333333325	1.0
786.7252292352913	0.13069999999999993	4.254533333333334	1.0
786.7252292352913	0.12786666666666663	4.266266666666667	1.0
786.7217955113713	0.13319999999999996	4.279866666666667	1.0
786.7217955113713	0.13476666666666665	4.2787999999999995	1.0
786.7217955113713	0.12466666666666663	4.2756	1.0
786.4445088307714	0.1267333333333333	4.341600000000001	1.0
786.4445088307714	0.1267333333333333	4.2956	1.0
786.0793591491156	0.13009999999999997	4.0389333333333335	1.0
786.0793591491156	0.11516666666666661	4.0389333333333335	1.0
786.0793591491156	0.11166666666666662	4.111066666666667	1.0
785.7140173828751	0.11619999999999996	4.327733333333334	1.0
785.7140173828751	0.11216666666666664	4.3724	1.0
784.8013851513459	0.09516666666666662	4.029733333333334	1.0
784.8013851513459	0.1011333333333333	4.023733333333333	1.0
784.5270427063316	0.09579999999999995	3.8341333333333334	1.0
784.5270427063316	0.09979999999999997	4.171733333333333	1.0
784.5270427063316	0.09973333333333328	4.2792	1.0
784.4374733412279	0.10276666666666663	4.226533333333333	1.0
784.4374733412279	0.10029999999999996	4.177333333333333	1.0
784.4388087254084	0.10029999999999996	4.202133333333333	1.0
784.4388087254084	0.10066666666666663	4.078133333333334	1.0
784.4388087254084	0.09389999999999996	4.078133333333334	1.0
783.7092518152597	0.08659999999999995	4.048133333333333	1.0
783.7092518152597	0.0860333333333333	4.000933333333333	1.0
783.6232476243557	0.08679999999999996	3.805600000000001	1.0
783.6232476243557	0.08956666666666661	3.767333333333334	1.0
783.6232476243557	0.08333333333333329	4.002666666666666	1.0
783.6232476243557	0.08766666666666663	4.12	1.0
783.6232476243557	0.08983333333333328	4.115733333333334	1.0
783.3437714191972	0.08933333333333329	4.0658666666666665	1.0
783.3437714191972	0.08889999999999997	3.989066666666666	1.0
782.6181048504902	0.0849333333333333	3.953866666666666	1.0
782.6181048504902	0.0849333333333333	3.978266666666667	1.0
782.6181048504902	0.08199999999999996	3.8608000000000002	1.0
781.3507398441606	0.08169999999999995	3.8608000000000002	1.0
781.3507398441606	0.07596666666666661	4.17	1.0
781.3507301927217	0.0798333333333333	4.349200000000001	1.0
781.3507301927217	0.08023333333333328	4.358266666666668	1.0
781.3502753106748	0.07709999999999995	4.346266666666667	1.0
781.3502753106748	0.08169999999999995	4.1684	1.0
781.3502753106748	0.07603333333333329	4.107733333333334	1.0
780.5419515314953	0.07196666666666661	3.8180000000000005	1.0
780.5419515314953	0.07786666666666661	3.7408	1.0
780.1779218535878	0.07359999999999994	3.795733333333334	1.0
780.1779218535878	0.07359999999999994	3.991066666666667	1.0
780.1779218535878	0.07286666666666662	4.014666666666667	1.0
780.177904406783	0.07286666666666662	4.014666666666667	1.0
780.177904406783	0.07813333333333328	4.035066666666666	1.0
779.7315701595268	0.07376666666666662	3.8333333333333335	1.0
779.7315701595268	0.07203333333333328	3.915333333333333	1.0
778.565005580883	0.07186666666666662	4.023066666666667	1.0
778.565005580883	0.06863333333333328	4.053733333333333	1.0
778.565005580883	0.06759999999999994	3.737733333333333	1.0
778.2889754767364	0.06976666666666662	3.8622666666666663	1.0
778.2889754767364	0.06156666666666662	4.128666666666667	1.0
778.2062324238216	0.06516666666666661	4.197466666666666	1.0
778.2062324238216	0.06943333333333328	4.1521333333333335	1.0
778.2062324238216	0.06943333333333328	3.8935999999999997	1.0
777.4860746533243	0.06433333333333327	4.211333333333334	1.0
777.4860746533243	0.07003333333333328	4.211333333333334	1.0
777.1278095061659	0.06706666666666661	3.767466666666666	1.0
777.1278095061659	0.06566666666666661	3.557733333333334	1.0
777.0416658120255	0.06853333333333328	3.6658666666666666	1.0
777.0416658120255	0.06663333333333328	3.9874666666666667	1.0
777.0416658120255	0.0672666666666666	4.113466666666667	1.0
777.0416298175879	0.06936666666666662	4.1004000000000005	1.0
777.0416298175879	0.06309999999999993	3.9984000000000006	1.0
777.0416298175879	0.06836666666666662	3.8378666666666663	1.0
777.0416298175879	0.06463333333333329	3.9517333333333333	1.0
777.0416298175879	0.06463333333333329	3.8868	1.0
776.2388169442073	0.06649999999999993	3.883733333333333	1.0
776.2388169442073	0.06386666666666661	3.883733333333333	1.0
776.2388169442073	0.06873333333333327	3.6503999999999994	1.0
776.2388169442073	0.061799999999999924	3.640533333333333	1.0
775.0819094044188	0.06179999999999994	3.6342666666666665	1.0
775.0819094044188	0.06383333333333328	3.8784	1.0
775.0819094044188	0.0626666666666666	3.880133333333333	1.0
775.081910327484	0.06213333333333328	3.8809333333333327	1.0
775.081910327484	0.06466666666666661	3.8382666666666667	1.0
774.3666792006987	0.05943333333333328	4.0149333333333335	1.0
774.3666792006987	0.06956666666666661	3.8208	1.0
774.3666792006987	0.06119999999999994	3.4460000000000006	1.0
773.9275396015058	0.06119999999999994	3.4286666666666665	1.0
773.9275396015058	0.06393333333333327	3.8212000000000006	1.0
773.9308499157275	0.06379999999999995	3.8212000000000006	1.0
773.9308499157275	0.06596666666666662	3.8484	1.0
773.6597456645085	0.06763333333333328	3.9354666666666662	1.0
773.6597456645085	0.06259999999999995	3.9066666666666667	1.0
773.6597456645085	0.06369999999999994	3.7929333333333335	1.0
773.6597456645085	0.06419999999999995	3.750266666666668	1.0
773.6597456645085	0.06179999999999995	3.700133333333333	1.0
772.070320396919	0.0645666666666666	3.485333333333333	1.0
772.070320396919	0.0655666666666666	3.48	1.0
771.986690362475	0.05853333333333327	3.48	1.0
771.986690362475	0.05853333333333327	3.6896000000000004	1.0
771.986690362475	0.06236666666666661	3.791466666666667	1.0
771.7161172606153	0.05956666666666661	3.791466666666667	1.0
771.7161172606153	0.058099999999999936	3.4778666666666664	1.0
771.0124737721131	0.06443333333333329	3.7373333333333334	1.0
771.0124737721131	0.062433333333333285	3.4065333333333334	1.0
771.0124737721131	0.06259999999999995	3.300933333333333	1.0
770.9268853451812	0.06469999999999994	3.1710666666666665	1.0
770.9268853451812	0.059666666666666604	3.1838666666666664	1.0
770.8416502152442	0.06193333333333328	3.6910666666666665	1.0
770.8416502152442	0.059299999999999936	3.72	1.0
770.1372514113052	0.06223333333333328	3.8510666666666657	1.0
770.1372514113052	0.06223333333333328	3.817866666666667	1.0
770.1372514113052	0.06519999999999994	3.8098666666666667	1.0
770.1375233211086	0.06163333333333327	3.8098666666666667	1.0
770.1375233211086	0.06089999999999994	3.768266666666667	1.0
770.1375233211086	0.06149999999999994	3.5196000000000005	1.0
770.1375233211086	0.059499999999999935	3.4389333333333334	1.0
770.1375233211086	0.06169999999999995	3.406533333333334	1.0
770.1375233211086	0.05846666666666662	3.4792000000000005	1.0
770.1375233211086	0.05766666666666661	3.702266666666667	1.0
768.646948478744	0.06316666666666661	3.694666666666667	1.0
768.646948478744	0.05926666666666661	3.837733333333333	1.0
768.298278793593	0.059299999999999936	3.879466666666666	1.0
768.298278793593	0.06443333333333329	3.432533333333333	1.0
768.298278793593	0.06443333333333329	3.3610666666666664	1.0
768.0465222785991	0.061399999999999934	3.352666666666667	1.0
768.0465222785991	0.0629666666666666	3.352666666666667	1.0
767.7787821150123	0.06143333333333327	3.6046666666666662	1.0
767.7787821150123	0.06103333333333327	3.581733333333333	1.0
767.7787821150123	0.06003333333333328	3.560000000000001	1.0
767.7784463249218	0.06243333333333328	3.554133333333334	1.0
767.7784463249218	0.05863333333333327	3.6508	1.0
767.0813489561651	0.06336666666666661	3.6391999999999993	1.0
767.0813489561651	0.06156666666666662	3.637333333333333	1.0
766.997080238147	0.06099999999999994	3.537066666666667	1.0
766.997080238147	0.06013333333333327	3.5396000000000005	1.0
766.997080238147	0.06013333333333327	3.472266666666667	1.0
765.9498022784998	0.06163333333333327	3.3586666666666662	1.0
765.9498022784998	0.06263333333333328	3.3586666666666662	1.0
765.8694871903216	0.06299999999999994	3.318666666666667	1.0
765.8694871903216	0.06413333333333328	3.3424	1.0
765.8694871903216	0.05459999999999994	3.3622666666666667	1.0
765.5195531400384	0.06389999999999994	3.365866666666667	1.0
765.5195531400384	0.06069999999999994	3.1809333333333334	1.0
765.5194510635132	0.06626666666666661	3.1718666666666664	1.0
765.5194510635132	0.06163333333333328	3.1692	1.0
765.0033114401318	0.0612666666666666	3.1225333333333336	1.0
765.0033114401318	0.06336666666666661	3.099333333333333	1.0
765.0033114401318	0.05833333333333327	3.2268	1.0
764.9120745727256	0.05833333333333327	3.641466666666666	1.0
764.9120745727256	0.06149999999999994	3.641466666666666	1.0
764.9102255008264	0.06076666666666661	3.6749333333333336	1.0
764.9102255008264	0.05896666666666661	3.6325333333333334	1.0
764.9102255008264	0.057766666666666605	3.517066666666666	1.0
764.9107946383732	0.06813333333333328	3.421733333333333	1.0
764.9107946383732	0.06089999999999994	3.3897333333333335	1.0
764.9107946383732	0.0593666666666666	3.412533333333333	1.0
764.9107946383732	0.06649999999999993	3.2967999999999997	1.0
763.9656876631392	0.06263333333333328	3.2588000000000004	1.0
763.9656876631392	0.06446666666666662	3.2896000000000005	1.0
763.9656876631392	0.05803333333333328	3.2572	1.0
763.9652493647097	0.05803333333333328	3.1981333333333333	1.0
763.9652493647097	0.06123333333333328	3.1981333333333333	1.0
763.964999195376	0.06383333333333328	3.1704	1.0
763.964999195376	0.05973333333333328	3.126266666666667	1.0
763.964999195376	0.05493333333333328	3.0976000000000004	1.0
763.6196531233244	0.06386666666666661	3.0885333333333334	1.0
763.6196531233244	0.05983333333333329	3.576266666666667	1.0
762.4159606170215	0.058199999999999946	3.4156000000000004	1.0
762.4159606170215	0.06306666666666662	3.300666666666667	1.0
762.4167097019351	0.06399999999999995	3.291733333333334	1.0
762.4167097019351	0.06703333333333328	3.298666666666667	1.0
762.4167097019351	0.062299999999999946	3.190933333333333	1.0
762.1574259169927	0.062299999999999946	3.1601333333333335	1.0
762.1574259169927	0.06199999999999994	3.1601333333333335	1.0
762.0735739661831	0.05783333333333328	3.1701333333333332	1.0
762.0735739661831	0.0612666666666666	3.127466666666667	1.0
762.0735739661831	0.05869999999999994	3.0953333333333335	1.0
761.9912523466398	0.06179999999999995	3.0608	1.0
761.9912523466398	0.06019999999999995	3.086266666666667	1.0
761.8978049448516	0.06079999999999994	3.197866666666666	1.0
761.8978049448516	0.06309999999999995	3.1448	1.0
761.8978049448516	0.05659999999999994	3.017733333333333	1.0
759.0795803509324	0.05863333333333327	3.0157333333333325	1.0
759.0795803509324	0.06336666666666661	2.9910666666666663	1.0
759.079572452839	0.06336666666666661	2.9488000000000003	1.0
759.079572452839	0.06333333333333327	2.9378666666666673	1.0
758.7403019981772	0.059866666666666596	2.9378666666666673	1.0
758.7403019981772	0.0654666666666666	3.0110666666666663	1.0
758.7403019981772	0.06286666666666661	3.104	1.0
758.7403019981772	0.058433333333333275	3.0968000000000004	1.0
758.7403019981772	0.055566666666666605	3.0187999999999997	1.0
758.7403019981772	0.06073333333333327	2.9178666666666664	1.0
758.7403019981772	0.06013333333333327	2.8804	1.0
758.7403019981772	0.06336666666666661	2.877333333333333	1.0
757.634052122558	0.06019999999999995	2.9322666666666666	1.0
757.634052122558	0.05923333333333327	2.9482666666666666	1.0
756.8738873658383	0.05923333333333327	3.054133333333333	1.0
756.8738873658383	0.06053333333333327	3.073866666666667	1.0
756.5316152037624	0.059633333333333274	3.073866666666667	1.0
756.5316152037624	0.055066666666666604	3.1218666666666675	1.0
756.5316152037624	0.06036666666666662	3.0194666666666667	1.0
756.111242296748	0.060633333333333275	2.9781333333333326	1.0
756.111242296748	0.06123333333333328	2.9445333333333332	1.0
756.1123159786159	0.05983333333333327	2.9265333333333334	1.0
756.1123159786159	0.06216666666666661	2.9329333333333336	1.0
756.1123159786159	0.058733333333333276	2.8971999999999993	1.0
755.8579640130075	0.060966666666666613	2.8841333333333328	1.0
755.8579640130075	0.060099999999999945	2.886533333333333	1.0
755.0998224065092	0.060099999999999945	2.917733333333333	1.0
755.0998224065092	0.05713333333333328	2.849466666666667	1.0
755.0135628909586	0.06076666666666661	2.849466666666667	1.0
755.0135628909586	0.06043333333333327	2.8001333333333336	1.0
755.0135628909586	0.06576666666666661	2.8009333333333335	1.0
754.8002645204567	0.05969999999999994	2.7814666666666668	1.0
754.8002645204567	0.05923333333333327	2.9209333333333336	1.0
753.9220281493588	0.06249999999999995	2.9593333333333334	1.0
753.9220281493588	0.060199999999999934	3.0128	1.0
753.9220281493588	0.06009999999999993	3.0658666666666665	1.0
753.3667423486627	0.05766666666666661	2.9663999999999997	1.0
753.3667423486627	0.06373333333333328	2.8668000000000005	1.0
753.1685613048664	0.06049999999999995	2.9264	1.0
753.1685613048664	0.06049999999999995	2.901333333333333	1.0
752.911077568395	0.060466666666666606	2.901333333333333	1.0
752.911077568395	0.06149999999999994	2.8554666666666666	1.0
752.911077568395	0.058466666666666604	2.8466666666666667	1.0
752.7943025120157	0.05969999999999994	2.8565333333333336	1.0
752.7943025120157	0.062299999999999946	2.872	1.0
752.1588199541035	0.060099999999999945	3.079333333333333	1.0
752.1588199541035	0.06179999999999994	3.1084	1.0
752.1588199541035	0.059533333333333285	2.8533333333333335	1.0
752.0771499492785	0.057933333333333274	2.7732	1.0
752.0771499492785	0.05886666666666661	2.7763999999999998	1.0
752.0771499492785	0.06273333333333328	2.9544000000000006	1.0
752.0771499492785	0.06273333333333328	3.0114666666666663	1.0
752.0771499492785	0.059799999999999943	2.7881333333333336	1.0
752.4144721210423	0.06589999999999994	2.7881333333333336	1.0
752.4144721210423	0.057933333333333274	2.797466666666667	1.0
750.2464057087396	0.058733333333333276	2.769066666666667	1.0
750.2464057087396	0.05763333333333327	2.7263999999999995	1.0
750.0725878582666	0.061999999999999944	2.7619999999999996	1.0
750.0725878582666	0.05949999999999995	2.7944	1.0
750.0725878582666	0.06319999999999994	2.7825333333333337	1.0
