wavelength(nm)	flourescence PMT(V)	ti_saph Power (V)	Gain (V)
750.323780150739	0.057899999999999945	2.8416	1.0
750.323780150739	0.058266666666666606	2.9512000000000005	1.0
750.323780150739	0.055933333333333266	2.9512000000000005	1.0
750.9908595767165	0.05763333333333327	3.014533333333333	1.0
750.9908595767165	0.05683333333333328	3.0227999999999997	1.0
750.9914858572436	0.06133333333333327	2.927866666666666	1.0
750.9914858572436	0.054166666666666606	3.0266666666666664	1.0
750.9938634381555	0.055933333333333266	2.9616000000000002	1.0
750.9938634381555	0.05879999999999994	2.840933333333333	1.0
752.0747592888364	0.05943333333333328	2.7782666666666667	1.0
752.0747592888364	0.055566666666666605	2.841333333333333	1.0
752.0747592888364	0.059933333333333276	3.0004	1.0
752.0785332418741	0.059933333333333276	3.034533333333334	1.0
752.0785332418741	0.055099999999999934	3.0372000000000003	1.0
752.9121773433321	0.05863333333333327	3.0372000000000003	1.0
752.9121773433321	0.0590666666666666	2.791066666666667	1.0
752.9098584630785	0.06029999999999994	2.7817333333333334	1.0
752.9098584630785	0.05919999999999995	2.756133333333333	1.0
752.9098584630785	0.0561666666666666	2.7610666666666663	1.0
753.1637658200136	0.05843333333333327	2.8590666666666666	1.0
753.1637658200136	0.059299999999999936	2.9418666666666673	1.0
753.1637828903309	0.058099999999999936	2.953733333333333	1.0
753.1637828903309	0.05869999999999994	2.9516	1.0
753.7000826042462	0.0580666666666666	2.96	1.0
753.7000826042462	0.0580666666666666	2.8184	1.0
753.7000826042462	0.05786666666666661	2.9726666666666666	1.0
753.999437202714	0.05463333333333326	2.9726666666666666	1.0
753.999437202714	0.05926666666666662	3.0501333333333336	1.0
753.999437202714	0.054899999999999935	2.834266666666667	1.0
753.999437202714	0.053899999999999934	2.7744	1.0
753.999437202714	0.05549999999999994	2.802133333333334	1.0
753.999437202714	0.06103333333333327	3.0808	1.0
753.999437202714	0.05313333333333327	3.105866666666667	1.0
753.999437202714	0.05679999999999993	2.8691999999999998	1.0
753.999437202714	0.058499999999999934	2.7688	1.0
755.8547900529278	0.05883333333333327	2.7309333333333328	1.0
755.8547900529278	0.05679999999999994	2.7279999999999998	1.0
755.853996370258	0.05679999999999994	2.7655999999999996	1.0
755.853996370258	0.05763333333333327	2.7655999999999996	1.0
756.1903083744171	0.053566666666666596	2.9188	1.0
756.1903083744171	0.060499999999999936	3.0189333333333326	1.0
756.1903083744171	0.058599999999999944	3.0937333333333337	1.0
756.5332120855605	0.05583333333333326	2.9476	1.0
756.5332120855605	0.05879999999999993	2.8799999999999994	1.0
757.7160878110415	0.057899999999999945	2.8584	1.0
757.7160878110415	0.06106666666666661	2.857333333333333	1.0
757.7122262510773	0.05973333333333328	2.8857333333333335	1.0
757.7122262510773	0.059899999999999946	2.8372	1.0
757.7122262510773	0.05753333333333328	2.814666666666667	1.0
757.7141711426564	0.05753333333333328	2.8356000000000003	1.0
757.7141711426564	0.05346666666666661	2.835733333333333	1.0
757.8908459209996	0.05679999999999994	2.835733333333333	1.0
757.8908459209996	0.05873333333333326	3.0843999999999996	1.0
758.737188172577	0.05849999999999994	3.0797333333333334	1.0
758.737188172577	0.057099999999999936	3.019066666666667	1.0
758.7361745835698	0.060199999999999934	2.9448000000000003	1.0
758.7361745835698	0.055833333333333277	2.8804	1.0
758.7361745835698	0.05926666666666661	2.826	1.0
759.0779753706488	0.05149999999999994	2.8597333333333337	1.0
759.0779753706488	0.0583666666666666	3.0208	1.0
759.0796812197865	0.05426666666666661	3.1058666666666666	1.0
759.0796812197865	0.05426666666666661	3.173733333333333	1.0
759.0763036260217	0.06093333333333326	3.1879999999999997	1.0
759.0763036260217	0.05679999999999994	3.1879999999999997	1.0
759.0763036260217	0.058299999999999935	3.3120000000000003	1.0
761.8907521163079	0.054333333333333275	3.2476000000000007	1.0
761.8907521163079	0.060733333333333285	3.3240000000000003	1.0
762.0692542745016	0.057166666666666616	3.3568	1.0
762.0692542745016	0.05733333333333327	3.4350666666666667	1.0
762.0694183524707	0.05459999999999994	3.4835999999999996	1.0
762.0694183524707	0.05776666666666661	3.5186666666666664	1.0
762.0694183524707	0.05369999999999994	3.4645333333333337	1.0
762.0728749109562	0.06369999999999995	3.403066666666667	1.0
762.0728749109562	0.05533333333333327	3.2513333333333327	1.0
762.1524113705642	0.05533333333333327	3.128	1.0
762.1524113705642	0.05339999999999994	3.128	1.0
762.4167428086399	0.05856666666666661	2.9254666666666664	1.0
762.4167428086399	0.05699999999999993	3.0136	1.0
762.4167428086399	0.057333333333333285	3.1277333333333335	1.0
763.6164109984259	0.06106666666666661	3.1803999999999997	1.0
763.6164109984259	0.05869999999999994	3.1931999999999996	1.0
763.9626384731843	0.06116666666666661	3.2256	1.0
763.9626384731843	0.05593333333333328	3.4049333333333336	1.0
763.9633703195802	0.05529999999999994	3.4512000000000005	1.0
763.9633703195802	0.059299999999999936	3.479733333333334	1.0
763.9633866263707	0.05706666666666661	3.48	1.0
763.9633866263707	0.05706666666666661	3.4803999999999995	1.0
763.9633866263707	0.0605666666666666	3.499466666666667	1.0
764.0468899188941	0.05973333333333327	3.499466666666667	1.0
764.0468899188941	0.05956666666666661	3.5467999999999997	1.0
764.9061080852712	0.055066666666666604	3.4608	1.0
764.9061080852712	0.054333333333333275	3.5248000000000004	1.0
764.9061080852712	0.05803333333333328	3.75	1.0
764.9061080852712	0.05383333333333327	3.707466666666667	1.0
764.9061080852712	0.05966666666666662	3.741866666666668	1.0
764.9069843104417	0.059666666666666604	3.7952	1.0
764.9069843104417	0.06303333333333327	3.7608000000000006	1.0
764.9080401052149	0.05549999999999994	3.7209333333333334	1.0
764.9080401052149	0.05549999999999994	3.6441333333333326	1.0
764.9079938727956	0.059666666666666604	3.4874666666666667	1.0
764.9079938727956	0.053599999999999946	3.4874666666666667	1.0
764.9079938727956	0.058466666666666604	3.3993333333333333	1.0
765.3409991122285	0.05469999999999994	3.4196000000000004	1.0
765.3409991122285	0.05563333333333328	3.4250666666666665	1.0
765.5171902087942	0.05823333333333328	3.450800000000001	1.0
765.5171902087942	0.05699999999999993	3.421733333333333	1.0
765.5186456012872	0.05683333333333328	3.4381333333333335	1.0
765.5186456012872	0.05693333333333328	3.4724	1.0
765.8643598868612	0.0539666666666666	3.1436	1.0
765.8643598868612	0.05643333333333327	3.0226666666666664	1.0
765.8643598868612	0.061666666666666606	3.014	1.0
765.9469304003442	0.061666666666666606	3.300933333333333	1.0
765.9469304003442	0.05666666666666661	3.300933333333333	1.0
766.9979878695458	0.05956666666666661	3.494666666666667	1.0
766.9979878695458	0.05853333333333327	3.3101333333333334	1.0
766.9971611249182	0.059099999999999944	3.1182666666666665	1.0
766.9971611249182	0.05886666666666662	3.120533333333334	1.0
766.9971611249182	0.05663333333333327	3.3553333333333333	1.0
767.0781682400046	0.05799999999999995	3.4137333333333335	1.0
767.0781682400046	0.05729999999999995	3.4129333333333336	1.0
767.7758958256719	0.05256666666666661	3.420266666666667	1.0
767.7758958256719	0.057433333333333274	3.5067999999999997	1.0
767.7792547973323	0.057433333333333274	3.522533333333334	1.0
767.7792547973323	0.057433333333333274	3.4819999999999998	1.0
767.7792547973323	0.05349999999999994	3.479733333333334	1.0
767.778049463199	0.057933333333333274	3.479733333333334	1.0
767.778049463199	0.055133333333333284	3.4117333333333337	1.0
768.2147977912438	0.056899999999999944	3.425733333333334	1.0
768.2147977912438	0.05896666666666661	3.3132	1.0
768.6471579558464	0.05929999999999995	3.296533333333334	1.0
768.6471579558464	0.0573666666666666	3.473733333333333	1.0
768.6471579558464	0.05636666666666661	3.486266666666667	1.0
768.6471579558464	0.0611666666666666	3.462933333333334	1.0
768.6471579558464	0.057433333333333274	3.2058666666666666	1.0
768.9994898658776	0.0574666666666666	3.2900000000000005	1.0
768.9994898658776	0.0574666666666666	3.4453333333333336	1.0
769.8698014234384	0.05633333333333327	3.3972	1.0
769.8698014234384	0.05886666666666661	3.3972	1.0
770.1373887252046	0.0612666666666666	3.2982666666666667	1.0
770.1373887252046	0.0567666666666666	3.409466666666667	1.0
770.1373887252046	0.05846666666666662	3.3978666666666673	1.0
770.1336708628129	0.058699999999999954	3.3824000000000005	1.0
770.1336708628129	0.0583666666666666	3.3933333333333335	1.0
770.9228061027344	0.06289999999999994	3.3556000000000004	1.0
770.9228061027344	0.05976666666666662	3.5033333333333334	1.0
770.9235535782044	0.0611666666666666	3.6248	1.0
770.9235535782044	0.059966666666666606	3.6399999999999992	1.0
770.9235535782044	0.059966666666666606	3.6518666666666664	1.0
771.0096201851313	0.05939999999999993	3.63	1.0
771.0096201851313	0.05913333333333328	3.63	1.0
771.2773279646239	0.05733333333333327	3.6354666666666664	1.0
771.2773279646239	0.057433333333333274	3.4134666666666664	1.0
771.7162175700485	0.059866666666666596	3.5374666666666674	1.0
771.7162175700485	0.06273333333333328	3.639066666666666	1.0
771.7162175700485	0.05939999999999994	3.503733333333333	1.0
771.9828358661406	0.058733333333333276	3.3566666666666665	1.0
771.9828358661406	0.06226666666666661	3.2367999999999997	1.0
772.0689537192169	0.060566666666666616	3.1935999999999996	1.0
772.0689537192169	0.058333333333333286	3.2621333333333333	1.0
773.2161204207152	0.05883333333333328	3.3653333333333335	1.0
773.2161204207152	0.05883333333333328	3.3681333333333336	1.0
773.2161204207152	0.06213333333333329	3.3656	1.0
773.2178487418903	0.05913333333333327	3.3656	1.0
773.2178487418903	0.06243333333333328	3.4453333333333336	1.0
773.2178487418903	0.059666666666666604	3.48	1.0
773.2178487418903	0.057833333333333264	3.4202666666666666	1.0
773.9752882448995	0.06093333333333328	3.404933333333333	1.0
773.9752882448995	0.060633333333333275	3.5201333333333333	1.0
774.368031601658	0.06353333333333328	3.622266666666668	1.0
774.368031601658	0.05876666666666661	3.7866666666666666	1.0
774.368031601658	0.06016666666666661	3.731466666666667	1.0
774.8078446350637	0.059799999999999943	3.7921333333333327	1.0
774.8078446350637	0.059799999999999943	3.8812	1.0
775.0803480724667	0.06086666666666661	3.481733333333333	1.0
775.0803480724667	0.059299999999999936	3.481733333333333	1.0
775.0802847917654	0.06319999999999994	3.4826666666666664	1.0
775.0802847917654	0.060966666666666613	3.466666666666667	1.0
775.0802847917654	0.06089999999999994	3.369733333333333	1.0
775.1649248092114	0.06136666666666661	3.4021333333333335	1.0
775.1649248092114	0.06243333333333328	3.7483999999999997	1.0
775.1649248092114	0.06443333333333329	3.6229333333333336	1.0
775.1649248092114	0.060833333333333274	3.480933333333333	1.0
775.1649248092114	0.06036666666666662	3.4802666666666666	1.0
775.1649248092114	0.06309999999999993	3.779200000000001	1.0
775.1649248092114	0.06309999999999993	3.63	1.0
775.1649248092114	0.06386666666666661	3.5905333333333327	1.0
775.1649248092114	0.06283333333333327	3.5905333333333327	1.0
777.1252170279489	0.06639999999999993	3.5510666666666673	1.0
777.1252170279489	0.06269999999999994	3.5497333333333336	1.0
777.1252170279489	0.06383333333333328	3.709466666666667	1.0
777.1252170279489	0.06629999999999996	3.867866666666667	1.0
777.4876605173691	0.06289999999999994	3.844133333333333	1.0
777.4876605173691	0.06859999999999995	3.833066666666667	1.0
777.4876605173691	0.06676666666666661	3.953066666666667	1.0
778.2022782452776	0.0644666666666666	3.8120000000000003	1.0
778.2022782452776	0.06606666666666662	3.851466666666667	1.0
778.2896598082028	0.0630666666666666	3.7866666666666666	1.0
778.2896598082028	0.0630666666666666	3.711733333333333	1.0
778.3764772236959	0.06543333333333327	3.5034666666666667	1.0
778.3764772236959	0.06309999999999995	3.5034666666666667	1.0
779.4529016855779	0.06656666666666662	3.8153333333333332	1.0
779.4529016855779	0.06736666666666662	3.7336000000000005	1.0
779.4529016855779	0.06676666666666663	3.7476000000000007	1.0
779.5445723164177	0.06819999999999996	3.717200000000001	1.0
779.5445723164177	0.06849999999999995	3.9062666666666663	1.0
780.1777565605703	0.07146666666666661	3.790800000000001	1.0
780.1777565605703	0.06993333333333328	3.7145333333333337	1.0
780.1787942381537	0.06909999999999995	3.641066666666666	1.0
780.1787942381537	0.06983333333333329	3.6310666666666664	1.0
780.1787942381537	0.06983333333333329	3.7978666666666663	1.0
780.6272628965464	0.07133333333333328	4.0008	1.0
780.6272628965464	0.07256666666666661	4.0008	1.0
781.2609850101945	0.07316666666666662	3.952133333333333	1.0
781.2609850101945	0.06863333333333327	4.016533333333333	1.0
781.3505310498134	0.07239999999999995	3.9986666666666664	1.0
781.3505310498134	0.07543333333333328	3.9346666666666668	1.0
781.4379454533191	0.07419999999999995	3.958533333333333	1.0
781.4379454533191	0.07809999999999995	3.7866666666666666	1.0
781.4379454533191	0.07109999999999994	3.5480000000000005	1.0
781.7125842053669	0.07146666666666661	3.479333333333334	1.0
781.7125842053669	0.07969999999999995	3.8217333333333334	1.0
782.6145276379161	0.07679999999999995	3.7196000000000002	1.0
782.6145276379161	0.07679999999999995	3.7189333333333328	1.0
783.3421662447945	0.07639999999999994	3.7120000000000006	1.0
783.3421662447945	0.08013333333333328	3.7120000000000006	1.0
783.3421662447945	0.0777333333333333	3.8459999999999996	1.0
783.343022862448	0.08813333333333329	3.8321333333333327	1.0
783.343022862448	0.08269999999999995	3.770800000000001	1.0
783.6152768840473	0.08246666666666663	3.7489333333333335	1.0
783.6152768840473	0.08829999999999996	3.6284	1.0
783.7046862806158	0.08903333333333328	3.636799999999999	1.0
783.7046862806158	0.0909333333333333	4.035733333333334	1.0
783.7046862806158	0.09189999999999997	3.9543999999999997	1.0
784.436119071245	0.09259999999999996	4.117466666666667	1.0
784.436119071245	0.09436666666666663	4.378266666666668	1.0
784.5256823780303	0.09436666666666663	4.193466666666667	1.0
784.5256823780303	0.0962333333333333	4.043066666666667	1.0
784.5249325677333	0.09739999999999996	4.043066666666667	1.0
784.5249325677333	0.09229999999999995	4.031333333333333	1.0
784.7980704561909	0.08676666666666662	3.7632000000000003	1.0
784.7980704561909	0.09189999999999997	3.647466666666666	1.0
784.7980704561909	0.09806666666666662	3.8268	1.0
784.889418565186	0.09903333333333329	3.8434666666666666	1.0
784.889418565186	0.11109999999999995	4.269866666666666	1.0
784.889418565186	0.11069999999999995	4.323733333333334	1.0
784.889418565186	0.11133333333333328	4.160800000000001	1.0
786.0758452903877	0.10903333333333329	3.8002666666666673	1.0
786.0758452903877	0.10903333333333329	4.001333333333334	1.0
786.4442925095273	0.11479999999999994	4.199599999999999	1.0
786.4442925095273	0.1265666666666666	4.199599999999999	1.0
786.4442925095273	0.12366666666666662	4.155466666666667	1.0
786.7220077468232	0.12259999999999996	4.099466666666667	1.0
786.7220077468232	0.12316666666666663	4.1412	1.0
786.8995205905258	0.12599999999999997	4.256133333333333	1.0
786.8995205905258	0.13153333333333328	4.341733333333333	1.0
787.6350549472015	0.13029999999999997	4.309866666666667	1.0
787.6350549472015	0.14219999999999994	4.396666666666668	1.0
787.6350549472015	0.13956666666666664	4.3056	1.0
787.7246312182762	0.13763333333333327	4.084133333333333	1.0
787.7246312182762	0.13763333333333327	3.9598666666666666	1.0
787.7235081093816	0.14156666666666662	4.0272	1.0
787.7235081093816	0.14636666666666662	4.0272	1.0
788.0030850324257	0.15249999999999994	4.266666666666667	1.0
788.0030850324257	0.1524666666666666	4.093733333333333	1.0
788.0030850324257	0.14123333333333327	3.7828000000000004	1.0
788.0030850324257	0.18079999999999993	3.9516	1.0
788.0030850324257	0.18893333333333323	3.9393333333333334	1.0
789.6617917998542	0.2212999999999999	4.106000000000001	1.0
789.6617917998542	0.22159999999999988	4.1950666666666665	1.0
789.9433671977475	0.22553333333333322	4.2	1.0
789.9433671977475	0.23366666666666655	4.048133333333333	1.0
790.0311063455196	0.23366666666666655	3.8809333333333327	1.0
790.0311063455196	0.23423333333333324	3.88	1.0
790.0311063455196	0.23099999999999996	3.88	1.0
790.862965103866	0.24703333333333324	4.174666666666667	1.0
790.862965103866	0.30399999999999994	4.356000000000001	1.0
790.8638966284068	0.32486666666666664	4.497733333333334	1.0
790.8638966284068	0.3169333333333333	4.450666666666668	1.0
790.8628804099213	0.31913333333333327	4.437866666666668	1.0
790.8628804099213	0.3134666666666666	4.192399999999999	1.0
790.8628804099213	0.3298999999999999	4.3281333333333345	1.0
791.2730874171194	0.3177333333333333	4.108266666666666	1.0
791.2730874171194	0.2967666666666666	3.797733333333334	1.0
791.2359250148851	0.2967666666666666	3.740933333333334	1.0
791.2359250148851	0.29323333333333323	4.269333333333333	1.0
792.7440549138663	0.44856666666666667	4.269333333333333	1.0
792.7440549138663	0.46159999999999984	4.2024	1.0
792.7440549138663	0.45796666666666663	3.9873333333333334	1.0
792.9051700384251	0.5169666666666666	4.223866666666666	1.0
792.9051700384251	0.5176333333333333	4.206933333333333	1.0
793.2759382444926	0.5473999999999999	4.121066666666667	1.0
793.2759382444926	0.5704333333333332	4.119866666666667	1.0
793.2757114418308	0.5828333333333333	4.136666666666667	1.0
793.2757114418308	0.5799333333333333	4.2	1.0
793.2757114418308	0.5928666666666665	4.282933333333333	1.0
793.2757114418308	0.5928666666666665	4.388800000000001	1.0
793.2757114418308	0.6806666666666666	4.248799999999999	1.0
794.0267835841776	0.7312333333333333	4.248799999999999	1.0
794.0267835841776	0.7732333333333332	4.437466666666667	1.0
794.0269320217702	0.8112666666666667	4.472933333333334	1.0
794.0269320217702	0.7573666666666666	4.094266666666667	1.0
794.3098789677629	0.8148666666666666	4.228	1.0
794.3098789677629	0.8713666666666665	4.5796	1.0
794.3098789677629	0.8861333333333334	4.565466666666667	1.0
794.4878893091573	0.8386666666666667	4.057466666666667	1.0
794.4878893091573	0.9757999999999999	4.5936	1.0
792.9027975796641	0.5184333333333332	4.212266666666666	1.0
792.9038027596605	0.5316666666666666	4.292666666666667	1.0
792.9038027596605	0.5042666666666665	4.290666666666667	1.0
792.9038027596605	0.4561333333333332	4.201866666666667	1.0
792.4396759522314	0.4561333333333332	4.451733333333334	1.0
792.4396759522314	0.46443333333333325	4.029066666666668	1.0
791.2359915466049	0.3341666666666666	4.029066666666668	1.0
791.2359915466049	0.3008666666666666	3.8006666666666677	1.0
791.2359915466049	0.2973666666666666	3.799866666666667	1.0
791.2359915466049	0.3077999999999999	3.8006666666666677	1.0
791.2359915466049	0.31573333333333325	4.029733333333333	1.0
791.2359915466049	0.30889999999999995	4.2114666666666665	1.0
791.2359915466049	0.31109999999999993	4.3124	1.0
790.8614657897846	0.3205333333333332	4.518000000000001	1.0
790.8614657897846	0.3229666666666666	4.498799999999999	1.0
790.1223042578448	0.2657999999999999	4.314133333333333	1.0
790.1223042578448	0.2657999999999999	4.167066666666666	1.0
790.0299209727863	0.24793333333333328	3.9335999999999998	1.0
790.0299209727863	0.22949999999999993	3.9335999999999998	1.0
790.0299209727863	0.23126666666666656	3.848266666666666	1.0
790.0299209727863	0.21866666666666656	3.8644000000000007	1.0
790.0299209727863	0.2259999999999999	4.360000000000001	1.0
789.1995852228148	0.22603333333333325	4.362266666666668	1.0
789.1995852228148	0.19873333333333326	4.1958666666666655	1.0
788.0030821345047	0.19209999999999994	4.152	1.0
788.0030821345047	0.14733333333333326	3.8765333333333336	1.0
788.0030821345047	0.1486666666666666	3.9798666666666667	1.0
787.9164636032084	0.1526333333333333	4.329600000000001	1.0
787.9164636032084	0.1526333333333333	4.274266666666667	1.0
787.7263845269108	0.1479666666666666	4.2292	1.0
787.7263845269108	0.14103333333333326	4.2292	1.0
787.6359988042127	0.15053333333333327	4.210533333333333	1.0
787.6359988042127	0.14463333333333328	4.256533333333333	1.0
787.6359988042127	0.14539999999999995	4.360800000000001	1.0
786.8995927225629	0.12859999999999994	4.226533333333333	1.0
786.8995927225629	0.12696666666666664	4.214933333333334	1.0
786.9014125069956	0.12649999999999997	4.2219999999999995	1.0
786.9014125069956	0.12369999999999995	4.2744	1.0
786.443217015387	0.11586666666666662	4.224133333333334	1.0
786.443217015387	0.1247333333333333	4.3004	1.0
786.443217015387	0.1247333333333333	4.360000000000001	1.0
786.4418897032022	0.1258666666666666	4.314666666666667	1.0
786.4418897032022	0.12096666666666664	4.314666666666667	1.0
786.0751487506732	0.11689999999999995	3.9398666666666666	1.0
786.0751487506732	0.11226666666666661	3.898533333333333	1.0
786.0751487506732	0.11199999999999996	4.316266666666667	1.0
786.0751487506732	0.10663333333333329	4.440133333333334	1.0
786.0751487506732	0.09733333333333329	3.9918666666666667	1.0
784.8008764996864	0.10116666666666663	4.1080000000000005	1.0
784.8008764996864	0.08979999999999995	3.9092	1.0
784.6131058625982	0.09403333333333329	3.8012000000000006	1.0
784.6131058625982	0.09359999999999995	3.831466666666667	1.0
784.6131058625982	0.09359999999999995	4.238266666666667	1.0
784.5249464637321	0.09823333333333328	4.209733333333333	1.0
784.5249464637321	0.09539999999999996	4.209733333333333	1.0
784.4381529990136	0.09463333333333329	3.848533333333333	1.0
784.4381529990136	0.09289999999999995	3.8360000000000007	1.0
783.7961513585916	0.08956666666666663	4.227733333333334	1.0
783.7961513585916	0.08999999999999996	3.9786666666666664	1.0
783.7961513585916	0.08329999999999996	3.8333333333333335	1.0
783.7961513585916	0.09166666666666662	3.8045333333333335	1.0
783.7961513585916	0.08489999999999995	3.8694666666666655	1.0
783.3440704927749	0.08586666666666662	4.128933333333334	1.0
783.3440704927749	0.08693333333333329	4.1204	1.0
783.3440704927749	0.08406666666666661	4.107866666666667	1.0
782.8906355537084	0.08406666666666661	3.8616	1.0
782.8906355537084	0.08546666666666662	4.016	1.0
782.5268365583705	0.07693333333333328	4.016	1.0
782.5268365583705	0.08136666666666663	3.9368	1.0
781.4369800191636	0.07393333333333328	3.8112000000000004	1.0
781.4369800191636	0.07079999999999996	3.840933333333334	1.0
781.4369800191636	0.08049999999999995	3.8656	1.0
781.3528915103935	0.07599999999999994	4.209466666666668	1.0
781.3528915103935	0.07356666666666661	4.255999999999999	1.0
781.3528915103935	0.07809999999999995	3.960666666666667	1.0
781.3528915103935	0.07403333333333327	4.1032	1.0
780.5422971932694	0.07496666666666661	4.082533333333333	1.0
780.5422971932694	0.07096666666666662	3.6748000000000003	1.0
780.5422971932694	0.07096666666666662	3.780933333333333	1.0
780.1772758855378	0.07383333333333328	4.026	1.0
780.1772758855378	0.06746666666666662	4.026	1.0
780.182060399281	0.06916666666666661	4.0424	1.0
780.182060399281	0.06753333333333328	4.031333333333333	1.0
780.182060399281	0.06879999999999996	3.7497333333333334	1.0
779.3692091091651	0.07433333333333329	3.890933333333334	1.0
779.3692091091651	0.07299999999999995	3.9694666666666665	1.0
778.2902269170226	0.06959999999999995	3.8981333333333335	1.0
778.2902269170226	0.06479999999999994	3.717066666666667	1.0
778.2028484767557	0.06523333333333327	3.7090666666666667	1.0
778.2028484767557	0.07053333333333328	4.061733333333334	1.0
778.2028484767557	0.07053333333333328	4.1884	1.0
777.9325003101117	0.06759999999999994	4.097733333333334	1.0
777.9325003101117	0.06033333333333328	4.097733333333334	1.0
777.484037942243	0.06689999999999996	3.996266666666667	1.0
777.484037942243	0.0625666666666666	4.182799999999999	1.0
777.484037942243	0.06476666666666663	3.7009333333333325	1.0
777.1262712076033	0.06756666666666661	3.7096000000000005	1.0
777.1262712076033	0.06049999999999995	3.4838666666666662	1.0
777.0398864301039	0.061666666666666606	3.5557333333333343	1.0
777.0398864301039	0.06159999999999994	3.8128000000000006	1.0
777.039104673816	0.0650666666666666	4.033333333333333	1.0
777.039104673816	0.0650666666666666	4.070133333333334	1.0
777.039104673816	0.0650666666666666	3.539466666666667	1.0
777.039104673816	0.062266666666666616	3.7874666666666674	1.0
777.039104673816	0.06176666666666662	3.7874666666666674	1.0
776.3231971978361	0.0650666666666666	3.9426666666666663	1.0
776.3231971978361	0.06493333333333327	3.875333333333333	1.0
776.3231971978361	0.06383333333333328	3.6787999999999994	1.0
776.3231971978361	0.06333333333333327	3.6351999999999998	1.0
776.3231971978361	0.0605666666666666	3.6542666666666666	1.0
775.0792750073409	0.06469999999999995	3.6498666666666666	1.0
775.0792750073409	0.06236666666666661	3.8105333333333338	1.0
774.7238880145856	0.06269999999999995	3.877466666666667	1.0
774.7238880145856	0.06209999999999994	3.5613333333333337	1.0
774.7238880145856	0.05846666666666662	3.9494666666666665	1.0
774.3684258871957	0.05846666666666662	3.8465333333333334	1.0
774.3684258871957	0.0678666666666666	3.37	1.0
774.0136757630056	0.06303333333333327	3.37	1.0
774.0136757630056	0.06466666666666661	3.3610666666666664	1.0
774.0136757630056	0.0612666666666666	3.3655999999999997	1.0
773.9264139059932	0.06476666666666661	3.770533333333333	1.0
773.9264139059932	0.06459999999999995	3.9858666666666664	1.0
773.3023734583178	0.060633333333333275	3.649199999999999	1.0
773.3023734583178	0.05653333333333326	3.7772	1.0
773.2163081771017	0.05943333333333328	3.8269333333333333	1.0
773.2163081771017	0.06089999999999994	3.8036000000000003	1.0
773.2163081771017	0.05799999999999995	3.5598666666666676	1.0
772.068781210046	0.05799999999999995	3.5389333333333335	1.0
772.068781210046	0.05839999999999994	3.5494666666666665	1.0
771.9839273421342	0.06399999999999993	3.5494666666666665	1.0
771.9839273421342	0.06006666666666661	3.690933333333333	1.0
771.9839273421342	0.058599999999999944	3.5818666666666665	1.0
771.2768303970122	0.059033333333333264	3.5682666666666667	1.0
771.2768303970122	0.061299999999999945	3.8210666666666673	1.0
771.2768303970122	0.060266666666666614	3.6132	1.0
771.2768303970122	0.05656666666666661	3.3164000000000002	1.0
770.9247417118579	0.057433333333333274	3.234933333333333	1.0
770.9247417118579	0.06209999999999995	3.2103999999999995	1.0
770.9247417118579	0.059799999999999943	3.348533333333334	1.0
770.8396430613917	0.059799999999999943	3.6823999999999995	1.0
770.8396430613917	0.05713333333333328	3.8552	1.0
770.1323620297413	0.058199999999999946	3.8552	1.0
770.1323620297413	0.05633333333333327	3.906266666666667	1.0
770.1323620297413	0.0574666666666666	3.882399999999999	1.0
770.1328222882039	0.06029999999999994	3.861466666666666	1.0
770.1328222882039	0.06013333333333327	3.7092	1.0
768.9940373575712	0.06249999999999995	3.4804000000000004	1.0
768.9940373575712	0.059799999999999943	3.442933333333334	1.0
768.9131975484243	0.054733333333333266	3.4197333333333337	1.0
768.9131975484243	0.05843333333333327	3.5772000000000004	1.0
768.9131975484243	0.05723333333333327	3.6698666666666666	1.0
768.6481364145513	0.05723333333333327	3.733866666666667	1.0
768.6481364145513	0.05753333333333328	3.795466666666667	1.0
768.2125438544547	0.06053333333333327	3.795466666666667	1.0
768.2125438544547	0.05703333333333327	3.799466666666667	1.0
768.2125438544547	0.05753333333333328	3.6820000000000004	1.0
767.7796422656004	0.057899999999999945	3.4485333333333332	1.0
767.7796422656004	0.05916666666666661	3.619866666666667	1.0
767.7796941669673	0.05723333333333327	3.5813333333333337	1.0
767.7796941669673	0.056399999999999936	3.5604000000000013	1.0
767.0802779064637	0.0567666666666666	3.560000000000001	1.0
767.0802779064637	0.05959999999999994	3.5727999999999995	1.0
767.0802779064637	0.05729999999999995	3.421466666666667	1.0
766.9950461455807	0.0581666666666666	3.4682666666666666	1.0
766.9950461455807	0.0581666666666666	3.515066666666667	1.0
766.9950441901565	0.0586666666666666	3.515066666666667	1.0
766.9950441901565	0.057099999999999936	3.560533333333334	1.0
766.9950441901565	0.05859999999999994	3.5696000000000003	1.0
765.9466423197314	0.05609999999999995	3.3557333333333337	1.0
765.9466423197314	0.058733333333333276	3.3426666666666667	1.0
765.8677469392895	0.055366666666666606	3.352	1.0
765.8677469392895	0.05929999999999995	3.3552	1.0
765.5190547372183	0.05483333333333327	3.1774666666666667	1.0
765.5190547372183	0.061466666666666614	3.1198666666666672	1.0
765.5190547372183	0.06219999999999994	3.1469333333333336	1.0
765.0026944302036	0.05526666666666662	3.2573333333333334	1.0
765.0026944302036	0.05526666666666662	3.1204000000000005	1.0
764.9105482232789	0.058333333333333286	3.1945333333333337	1.0
764.9105482232789	0.05383333333333327	3.1945333333333337	1.0
764.9105482232789	0.0571666666666666	3.3750666666666667	1.0
764.9105482232789	0.061666666666666606	3.490933333333334	1.0
764.9105482232789	0.059799999999999943	3.6144000000000007	1.0
764.9072890709169	0.055099999999999934	3.4955999999999996	1.0
764.9072890709169	0.057766666666666605	3.2896000000000005	1.0
764.9072890709169	0.0571666666666666	3.178533333333333	1.0
764.8269380291629	0.06093333333333326	3.274666666666666	1.0
764.8269380291629	0.057566666666666606	3.2929333333333335	1.0
764.0486414145411	0.0573666666666666	3.270266666666666	1.0
764.0486414145411	0.0573666666666666	3.3711999999999995	1.0
763.9645707025131	0.055099999999999934	3.3694666666666664	1.0
763.9645707025131	0.058099999999999936	3.3694666666666664	1.0
763.9645707025131	0.05919999999999993	3.3397333333333337	1.0
763.9645618841223	0.05919999999999995	3.291466666666667	1.0
763.9645618841223	0.056066666666666605	3.2690666666666672	1.0
763.9645564029146	0.05533333333333327	3.193866666666666	1.0
763.9645564029146	0.06079999999999994	3.173866666666667	1.0
763.9645564029146	0.05973333333333327	3.1326666666666667	1.0
763.6175903973073	0.057266666666666605	3.3533333333333335	1.0
763.6175903973073	0.05969999999999994	3.4230666666666667	1.0
762.4156016925727	0.056333333333333284	3.2152	1.0
762.4156016925727	0.056333333333333284	3.0362666666666662	1.0
762.1554699438359	0.0580666666666666	3.0510666666666664	1.0
762.1554699438359	0.058266666666666606	3.0510666666666664	1.0
762.1554699438359	0.05663333333333327	2.886933333333333	1.0
762.0731814574406	0.05776666666666661	2.8766666666666665	1.0
762.0731814574406	0.05619999999999994	2.934	1.0
762.0732120318135	0.06289999999999994	3.160133333333333	1.0
762.0732120318135	0.05569999999999993	3.1408	1.0
762.0732120318135	0.06076666666666661	3.1041333333333334	1.0
761.8958273238201	0.05613333333333327	3.1048	1.0
761.8958273238201	0.05729999999999995	3.139466666666667	1.0
759.0409778579749	0.05776666666666661	3.1610666666666667	1.0
759.0409778579749	0.05929999999999993	3.0801333333333334	1.0
759.078212850514	0.05929999999999993	3.0781333333333336	1.0
759.078212850514	0.0549666666666666	3.0527999999999995	1.0
759.078212850514	0.05679999999999994	3.0527999999999995	1.0
759.078212850514	0.058099999999999936	3.0175999999999994	1.0
759.078212850514	0.05739999999999995	3.0094666666666665	1.0
758.8202383861643	0.057433333333333274	3.0633333333333335	1.0
758.8202383861643	0.059099999999999944	3.014533333333333	1.0
758.8202383861643	0.05589999999999994	2.949333333333333	1.0
758.8202383861643	0.057933333333333274	2.8781333333333325	1.0
758.8202383861643	0.057566666666666606	2.872266666666666	1.0
757.8920495356296	0.056266666666666604	2.9008	1.0
757.8920495356296	0.056733333333333275	2.8874666666666666	1.0
756.8699856730855	0.056733333333333275	2.8538666666666668	1.0
756.8699856730855	0.055399999999999935	2.9179999999999997	1.0
756.8699856730855	0.058599999999999944	2.9179999999999997	1.0
756.5315088163513	0.05833333333333327	3.0132000000000003	1.0
756.5315088163513	0.05939999999999994	3.1350666666666664	1.0
756.4935526021656	0.0537666666666666	3.1614666666666666	1.0
756.4935526021656	0.0527666666666666	3.128533333333333	1.0
756.4935526021656	0.05423333333333327	3.0176	1.0
756.1107568492588	0.05579999999999995	3.0176	1.0
756.1107568492588	0.0591666666666666	3.0166666666666666	1.0
755.8528049968968	0.060799999999999944	2.9590666666666663	1.0
755.8528049968968	0.05449999999999993	3.0063999999999997	1.0
755.8557379525662	0.0603666666666666	2.9557333333333338	1.0
755.8557379525662	0.0603666666666666	2.9364000000000003	1.0
755.8557379525662	0.05446666666666661	2.8592	1.0
755.0138491783302	0.06023333333333328	2.8592	1.0
755.0138491783302	0.059366666666666616	2.799866666666667	1.0
754.7593133239214	0.05536666666666662	2.8144	1.0
754.7593133239214	0.05779999999999994	2.8571999999999997	1.0
754.7593133239214	0.05869999999999994	2.8881333333333337	1.0
753.9998232647152	0.05849999999999994	3.0716	1.0
753.9998232647152	0.05663333333333327	3.0911999999999997	1.0
753.661720197624	0.055966666666666616	2.8822666666666668	1.0
753.661720197624	0.05923333333333327	2.864	1.0
753.661720197624	0.05563333333333328	2.9751999999999996	1.0
753.1650222262133	0.05563333333333328	3.0142666666666664	1.0
753.1650222262133	0.0574666666666666	3.020133333333333	1.0
753.1641012873536	0.0552666666666666	3.020133333333333	1.0
753.1641012873536	0.05956666666666661	2.9772	1.0
752.9109178467985	0.060266666666666614	2.884666666666666	1.0
752.9109178467985	0.05659999999999994	2.8826666666666667	1.0
752.9109178467985	0.06069999999999994	2.862133333333333	1.0
752.1620164887631	0.053966666666666614	2.866933333333333	1.0
752.1620164887631	0.05539999999999994	3.1102666666666665	1.0
752.0789185514732	0.05749999999999994	2.855066666666667	1.0
752.0789185514732	0.0536666666666666	2.736266666666667	1.0
752.0789185514732	0.05576666666666661	2.6716	1.0
750.9926316231216	0.05666666666666661	2.7425333333333333	1.0
750.9926316231216	0.05666666666666661	2.8982666666666668	1.0
750.9926316231216	0.05516666666666661	2.8982666666666668	1.0
750.9926316231216	0.055699999999999944	2.9128000000000003	1.0
750.2817895561813	0.05519999999999994	2.8566666666666665	1.0
750.2817895561813	0.05529999999999994	2.8313333333333333	1.0
750.2817895561813	0.057133333333333265	2.7950666666666666	1.0
750.2434380376756	0.05809999999999993	2.7929333333333335	1.0
750.2434380376756	0.06053333333333327	2.7921333333333336	1.0
