wavelength(nm)	flourescence PMT(V)	ti_saph Power (V)	Gain (V)
820.6126658236271	0.009733333333333453	0.002686666666666649	0.4
820.6126658236271	0.009700000000000118	0.002693333333333316	0.4
820.6126813276164	0.009733333333333453	0.0028133333333333153	0.4
820.8089572458747	0.009833333333333453	0.0027599999999999817	0.4
820.8089572458747	0.009833333333333453	0.002733333333333315	0.4
821.0113405055922	0.01000000000000012	0.002753333333333315	0.4
821.1133699162149	0.009766666666666786	0.002753333333333315	0.4
821.1115603488753	0.009933333333333454	0.002659999999999982	0.4
821.1115603488753	0.009666666666666787	0.0026799999999999814	0.4
821.3091650704885	0.009866666666666786	0.002639999999999982	0.4
821.9545177714808	0.01000000000000012	0.002633333333333315	0.4
821.9545177714808	0.009933333333333454	0.002673333333333315	0.4
822.171378626733	0.009666666666666787	0.0025799999999999825	0.4
822.2138168889546	0.00980000000000012	0.0026466666666666483	0.4
822.2138173718837	0.009866666666666786	0.0027199999999999815	0.4
822.2138173718837	0.009866666666666786	0.0026666666666666492	0.4
822.3135380613626	0.009933333333333454	0.0025199999999999823	0.4
822.3134784564796	0.00990000000000012	0.0025199999999999823	0.4
822.3134784564796	0.009966666666666785	0.0026333333333333152	0.4
822.313899842598	0.009966666666666785	0.0025399999999999824	0.4
822.7160839732743	0.009966666666666785	0.0025533333333333155	0.4
823.5208121066348	0.009833333333333453	0.0027266666666666485	0.4
823.5208121066348	0.009600000000000119	0.0027199999999999824	0.4
823.4740035300414	0.00980000000000012	0.0026799999999999814	0.4
824.4264891958738	0.009733333333333453	0.002593333333333316	0.4
824.4264891958738	0.009666666666666787	0.0026266666666666487	0.4
824.4264776577145	0.009666666666666787	0.0026533333333333153	0.4
824.4263490090627	0.009866666666666786	0.002646666666666649	0.4
824.4264657795293	0.00950000000000012	0.002646666666666649	0.4
824.4264657795293	0.009600000000000119	0.002659999999999982	0.4
824.8326331604383	0.00980000000000012	0.0026533333333333157	0.4
824.8309796027723	0.009766666666666786	0.0026666666666666484	0.4
824.8309796027723	0.009833333333333453	0.002766666666666648	0.4
825.6387366382784	0.00980000000000012	0.002753333333333315	0.4
825.6377978413138	0.009666666666666787	0.002739999999999981	0.4
825.6378014608081	0.009766666666666786	0.0028466666666666475	0.4
825.6378014608081	0.00980000000000012	0.0026866666666666484	0.4
825.738175104457	0.009466666666666786	0.0027399999999999825	0.4
826.0450502401726	0.009466666666666786	0.0026733333333333153	0.4
826.0450502401726	0.009233333333333453	0.0026733333333333153	0.4
826.0450672884526	0.00980000000000012	0.002899999999999982	0.4
826.1432925676163	0.009766666666666786	0.002899999999999982	0.4
826.6505174816768	0.00980000000000012	0.002933333333333315	0.4
826.6505174816768	0.00980000000000012	0.0028933333333333146	0.4
826.9555271846594	0.009700000000000118	0.003159999999999981	0.4
826.9555196052314	0.009466666666666786	0.0030733333333333147	0.4
826.9555196052314	0.009733333333333453	0.0030733333333333147	0.4
827.3623466134978	0.009700000000000118	0.0033599999999999806	0.4
827.7714464130762	0.009766666666666786	0.003646666666666646	0.4
827.9686361422036	0.009766666666666786	0.004213333333333312	0.4
827.9686361422036	0.009766666666666786	0.004379999999999979	0.4
827.9725455594288	0.009633333333333454	0.004379999999999979	0.4
828.2778909224033	0.00950000000000012	0.004939999999999978	0.4
828.2793431299808	0.00980000000000012	0.005159999999999978	0.4
828.2793431299808	0.009633333333333454	0.005253333333333311	0.4
828.5835607483676	0.009666666666666787	0.005399999999999978	0.4
828.5388474764188	0.009733333333333453	0.006719999999999978	0.4
828.5388474764188	0.009600000000000119	0.006753333333333312	0.4
828.6856052923081	0.009766666666666786	0.006779999999999979	0.4
828.7845295344968	0.009766666666666786	0.007253333333333313	0.4
829.5002485947174	0.009766666666666786	0.01849333333333332	0.4
829.5002485947174	0.008966666666666786	0.021026666666666652	0.4
829.5033142766881	0.00980000000000012	0.021026666666666652	0.4
829.5008556884649	0.009733333333333453	0.021413333333333315	0.4
829.5008556884649	0.009600000000000119	0.021533333333333314	0.4
829.4995065337774	0.00990000000000012	0.021699999999999983	0.4
830.0129410169943	0.009266666666666786	0.04302666666666665	0.4
830.0129908602572	0.008966666666666786	0.04359333333333331	0.4
830.0129908602572	0.009033333333333452	0.04402666666666665	0.4
830.0130131395174	0.009000000000000119	0.044233333333333305	0.4
830.0129547927249	0.007766666666666785	0.04745333333333331	0.4
830.0129547927249	0.00950000000000012	0.06377333333333332	0.4
830.422646168866	0.00950000000000012	0.07361999999999998	0.4
830.9753384741706	0.009733333333333453	0.07823999999999998	0.4
830.9320394505014	0.00940000000000012	0.07823999999999998	0.4
830.9320394505014	0.009533333333333453	0.07803999999999997	0.4
831.7550230395208	0.009266666666666786	0.08528666666666665	0.4
831.7548261186365	0.009333333333333452	0.09186666666666667	0.4
831.7548573816987	0.008666666666666786	0.08622	0.4
831.7548573816987	0.008933333333333453	0.08579999999999999	0.4
832.1665031861012	0.009300000000000119	0.09031333333333331	0.4
832.1665329375672	0.009700000000000118	0.09707333333333332	0.4
832.1665329375672	0.009966666666666785	0.09592	0.4
832.9863326930385	0.009233333333333453	0.09238666666666667	0.4
833.2995716614582	0.009233333333333453	0.08663333333333331	0.4
833.2997160794805	0.009000000000000119	0.08663333333333331	0.4
833.2997160794805	0.00920000000000012	0.08732666666666665	0.4
833.442400768009	0.00950000000000012	0.08803333333333332	0.4
833.3982322493633	0.009033333333333452	0.08829333333333332	0.4
833.3982322493633	0.009433333333333451	0.08851333333333332	0.4
833.4936461931231	0.008933333333333453	0.08891333333333332	0.4
833.9148934669444	0.008333333333333451	0.08893333333333332	0.4
834.3290625287283	0.007733333333333451	0.09077999999999999	0.4
834.3290625287283	0.00653333333333345	0.09521333333333333	0.4
834.329295870032	0.007933333333333452	0.09486	0.4
835.0543093393967	0.007933333333333452	0.08931999999999998	0.4
835.0543093393967	0.007333333333333451	0.0906	0.4
835.2593043073423	0.0005333333333334448	0.0906	0.4
835.4680676310851	0.00023333333333344457	0.08776666666666666	0.4
835.4688704625186	0.006966666666666563	0.08907999999999999	0.4
835.4688704625186	0.008033333333333231	0.08889999999999998	0.4
835.4680438664773	0.00983333333333323	0.09162	0.4
835.7801711895569	0.016299999999999905	0.08771999999999998	0.4
835.7801711895569	0.02249999999999991	0.08573999999999998	0.4
836.0879117729462	0.02906666666666658	0.08557333333333332	0.4
836.8160021215796	0.04396666666666657	0.08704666666666666	0.4
836.8185836628603	0.0898333333333332	0.09566	0.4
836.8185836628603	0.0898333333333332	0.09666	0.4
837.0222096442706	0.09249999999999986	0.09691999999999998	0.4
837.2353119176918	0.10549999999999987	0.09691999999999998	0.4
837.2353119176918	0.11969999999999988	0.0969733333333333	0.4
837.3382381346561	0.1370999999999999	0.09774666666666666	0.4
837.3369002487603	0.1444999999999999	0.10192666666666665	0.4
837.3383040090332	0.14626666666666657	0.102	0.4
837.3383040090332	0.14789999999999992	0.09990666666666664	0.4
837.7540152408682	0.17943333333333328	0.09173333333333332	0.4
838.0665006697964	0.18923333333333328	0.08925999999999998	0.4
838.0665006697964	0.23569999999999994	0.09422666666666665	0.4
838.0677665661135	0.27029999999999993	0.09753333333333332	0.4
838.0666297022167	0.27029999999999993	0.09667333333333333	0.4
838.2730186004271	0.2726333333333332	0.09361333333333333	0.4
838.2730186004271	0.29096666666666654	0.09361333333333333	0.4
838.1652613076403	0.35603333333333326	0.09016666666666666	0.4
839.1081388677428	0.4468666666666667	0.08768666666666666	0.4
839.1081388677428	0.45869999999999994	0.08614666666666666	0.4
839.2140773326918	0.4607666666666667	0.08635999999999999	0.4
839.4218904700041	0.5361333333333331	0.09734	0.4
839.4218904700041	0.5495666666666665	0.09462	0.4
839.5292255211311	0.5788333333333332	0.09785333333333333	0.4
839.5292512403527	0.594933333333333	0.09948666666666665	0.4
839.5292519146342	0.5940333333333331	0.09918666666666667	0.4
839.5292519146342	0.5940333333333331	0.09834666666666667	0.4
840.6822020758467	0.5888333333333332	0.09538666666666666	0.4
840.6823882170155	0.6691999999999999	0.09538666666666666	0.4
840.6823882170155	0.7031000000000001	0.09536	0.4
840.9941798989922	0.7053333333333333	0.09350666666666665	0.4
840.9969781764229	0.6827333333333331	0.08978666666666665	0.4
840.9969781764229	0.6765666666666664	0.08855333333333332	0.4
840.9970714275091	0.6774333333333332	0.08837999999999999	0.4
841.3139462304642	0.7256666666666667	0.09223333333333333	0.4
841.4177229686243	0.7826666666666665	0.09823999999999998	0.4
841.4177229686243	0.8438666666666665	0.10472666666666663	0.4
841.5645593210463	0.8332999999999998	0.10320666666666665	0.4
841.7333958804459	0.7908999999999999	0.09783999999999998	0.4
841.7333958804459	0.7908999999999999	0.10488666666666664	0.4
841.7329530740062	0.8577	0.10488666666666664	0.4
841.7329604667774	0.8592666666666667	0.10431333333333331	0.4
841.7329604667774	0.8275333333333333	0.10012666666666666	0.4
842.2590228015044	0.8197666666666666	0.09819999999999998	0.4
842.5747488418192	0.8595333333333334	0.10269999999999999	0.4
842.5752508187209	0.8608000000000002	0.10242666666666665	0.4
842.5752508187209	0.8440666666666666	0.09942666666666665	0.4
842.9963076641676	0.7884	0.09205999999999999	0.4
843.1009123319425	0.8384999999999998	0.09773999999999998	0.4
843.1009123319425	0.8453666666666666	0.09870666666666665	0.4
843.2051502585996	0.7637999999999999	0.08877333333333333	0.4
843.205573646588	0.7637999999999999	0.08617333333333332	0.4
843.205573646588	0.7350666666666666	0.08459333333333331	0.4
843.5262110220744	0.7145	0.08459333333333331	0.4
844.7941885895709	0.7512333333333333	0.08813333333333333	0.4
844.9445399688774	0.8104333333333331	0.09545999999999999	0.4
844.9445399688774	0.8242333333333332	0.09699999999999998	0.4
844.8995276185138	0.7026666666666667	0.08410666666666665	0.4
844.8994770233821	0.6834999999999999	0.08240666666666664	0.4
844.8994770233821	0.6822999999999998	0.08196666666666665	0.4
845.1126344289961	0.7360666666666666	0.08782666666666666	0.4
845.2177556273576	0.6935	0.08315333333333332	0.4
845.2177556273576	0.6858666666666665	0.08269999999999998	0.4
845.2179152350898	0.6932333333333333	0.08327999999999998	0.4
845.5358912898927	0.6932333333333333	0.08632666666666665	0.4
845.6407026928132	0.7205333333333332	0.08632666666666665	0.4
845.6407026928132	0.7254333333333333	0.08723333333333332	0.4
845.8556299394788	0.7167333333333332	0.08645333333333333	0.4
846.0665828543205	0.6921999999999999	0.08395999999999998	0.4
846.0665828543205	0.6520333333333332	0.08025999999999998	0.4
846.0665804559657	0.6537333333333334	0.08058666666666665	0.4
847.0243693401356	0.7220333333333332	0.08870666666666666	0.4
847.0243693401356	0.7220333333333334	0.08969999999999999	0.4
847.0243396064728	0.6956	0.08660666666666664	0.4
848.4994882179191	0.6783666666666667	0.08509999999999998	0.4
848.4994882179191	0.7098	0.08972666666666664	0.4
848.4994882179191	0.7098	0.09020666666666664	0.4
848.733484533373	0.7099333333333333	0.09067999999999998	0.4
848.7334365529148	0.7156999999999999	0.09067999999999998	0.4
848.7334365529148	0.7019333333333333	0.08869999999999997	0.4
849.3158506985657	0.6892999999999999	0.08644666666666664	0.4
849.1606088087909	0.6750999999999999	0.08559333333333331	0.4
849.1606088087909	0.6702666666666666	0.08495999999999998	0.4
849.2695695982709	0.7023333333333333	0.08937333333333332	0.4
850.14277705554	0.6960333333333334	0.08872666666666665	0.4
850.5559568309752	0.6484333333333332	0.08292666666666665	0.4
850.5559568309752	0.6425	0.08319999999999998	0.4
850.7226980763543	0.6778	0.08723333333333332	0.4
852.0629326782758	0.6716666666666666	0.08709999999999998	0.4
852.0629326782758	0.6716666666666666	0.08576666666666666	0.4
852.0626806446312	0.6372333333333331	0.08576666666666666	0.4
852.3357137009543	0.6086999999999999	0.08222666666666666	0.4
852.3357137009543	0.5297	0.07200666666666664	0.4
852.3357137009543	0.5991666666666666	0.08190666666666666	0.4
852.3867152507436	0.6394999999999998	0.08758666666666666	0.4
852.5526819349391	0.6415999999999998	0.08781333333333331	0.4
852.5526819349391	0.6117666666666666	0.0838333333333333	0.4
852.5526819349391	0.5408999999999998	0.07455999999999997	0.4
852.9252604636266	0.5995666666666666	0.0833933333333333	0.4
852.9851101347168	0.6040333333333333	0.08413999999999998	0.4
852.9851101347168	0.5953999999999998	0.08331333333333332	0.4
853.0358557828183	0.5953999999999998	0.07955333333333331	0.4
853.0361933582592	0.5657666666666665	0.07955333333333331	0.4
853.0361933582592	0.5512999999999999	0.0773133333333333	0.4
853.3089441493646	0.5454666666666665	0.0767933333333333	0.4
853.3092255412615	0.5470666666666666	0.07795999999999997	0.4
853.3090213593371	0.5820333333333332	0.08282666666666665	0.4
853.3090213593371	0.5830333333333332	0.08308666666666666	0.4
854.5004578421475	0.5888333333333332	0.08577999999999998	0.4
854.5007969349658	0.5820666666666665	0.08492666666666665	0.4
854.5007969349658	0.5869999999999999	0.08586666666666665	0.4
854.6590113459495	0.6063333333333333	0.08854	0.4
854.6588129004349	0.6154999999999999	0.08994666666666666	0.4
854.826189677081	0.6154999999999999	0.08977999999999998	0.4
854.826189677081	0.6181	0.08383999999999998	0.4
854.826189677081	0.5731999999999999	0.08383999999999998	0.4
856.073216192901	0.5257999999999998	0.07726666666666664	0.4
856.0732139681592	0.6903333333333334	0.10244666666666664	0.4
856.0732139681592	0.6885666666666667	0.10213999999999998	0.4
856.240259702372	0.6344666666666665	0.09524666666666666	0.4
856.2405573383958	0.6628999999999998	0.09945999999999999	0.4
856.2405573383958	0.6591999999999999	0.09901333333333333	0.4
856.5076766766828	0.5792666666666666	0.08792666666666665	0.4
856.5074514749092	0.5694999999999999	0.08715333333333332	0.4
856.509664336635	0.5787999999999999	0.08813333333333333	0.4
856.509664336635	0.5787999999999999	0.09012666666666666	0.4
856.6155106961103	0.5912333333333332	0.09577333333333332	0.4
856.7288513625857	0.6278999999999998	0.09577333333333332	0.4
856.8907623295747	0.6309666666666666	0.09673999999999999	0.4
856.8907623295747	0.5939666666666664	0.09122666666666665	0.4
856.8923216599073	0.5666333333333332	0.08762666666666666	0.4
856.894450658456	0.5541999999999998	0.08565333333333332	0.4
856.894450658456	0.5484999999999999	0.08500666666666665	0.4
857.000585270126	0.5478999999999998	0.08506666666666665	0.4
857.3820405695309	0.5209999999999999	0.0826533333333333	0.4
857.3820556671678	0.47443333333333326	0.07603999999999997	0.4
857.3820556671678	0.4872666666666667	0.07773999999999998	0.4
858.4740507727347	0.46336666666666665	0.07645999999999997	0.4
858.6935357663466	0.46336666666666665	0.08336666666666663	0.4
858.6935357663466	0.5037999999999999	0.08247999999999997	0.4
858.6934897858371	0.49566666666666664	0.08247999999999997	0.4
858.6945962466838	0.48626666666666646	0.08159333333333331	0.4
858.69357302307	0.4731	0.07977333333333332	0.4
858.69357302307	0.4695333333333333	0.07921999999999997	0.4
860.0131132803973	0.36633333333333323	0.06576666666666664	0.4
860.1221674954244	0.39886666666666654	0.07309333333333332	0.4
860.2320530821712	0.37966666666666654	0.06981999999999998	0.4
860.2320530821712	0.35136666666666655	0.06444666666666665	0.4
860.384995980978	0.3297666666666665	0.061186666666666646	0.4
860.2309493870599	0.33286666666666653	0.06143999999999998	0.4
860.2309493870599	0.33286666666666653	0.06440666666666665	0.4
860.5604748146802	0.34873333333333323	0.058679999999999975	0.4
860.5604062456011	0.3121333333333332	0.058679999999999975	0.4
860.560457984552	0.3024666666666665	0.05705333333333331	0.4
860.560457984552	0.30393333333333317	0.05725999999999997	0.4
860.8917106750573	0.3116666666666665	0.05851333333333331	0.4
860.89170760504	0.3076999999999998	0.058959999999999985	0.4
860.89170760504	0.29136666666666644	0.05605333333333331	0.4
861.0008650067954	0.3123666666666665	0.05992666666666665	0.4
861.0017738896753	0.32786666666666653	0.06309999999999998	0.4
861.000862088314	0.3169333333333332	0.062246666666666645	0.4
861.000862088314	0.2840666666666665	0.05545999999999997	0.4
861.2231077309915	0.27686666666666654	0.05415999999999998	0.4
862.4357059453495	0.27686666666666654	0.05660666666666664	0.4
862.4357539106384	0.27849999999999986	0.06168666666666665	0.4
862.4357539106384	0.2951666666666665	0.06168666666666665	0.4
862.43575397631	0.2918666666666665	0.061066666666666644	0.4
862.6591814901852	0.27086666666666653	0.057139999999999976	0.4
862.6591814901852	0.24999999999999992	0.05468666666666664	0.4
864.0991329898819	0.23109999999999986	0.055933333333333314	0.4
863.7999705476406	0.25626666666666653	0.06042666666666664	0.4
864.2092088260348	0.26383333333333325	0.061726666666666645	0.4
864.2092088260348	0.2651333333333332	0.06164666666666664	0.4
864.3191628345713	0.2295333333333332	0.05414666666666664	0.4
864.428518405637	0.2305999999999999	0.0544933333333333	0.4
864.428518405637	0.2305999999999999	0.057219999999999965	0.4
864.5423491662565	0.23509999999999986	0.055866666666666634	0.4
864.5429411401359	0.23096666666666654	0.055866666666666634	0.4
864.5429411401359	0.22149999999999986	0.05313999999999998	0.4
864.6543736546121	0.21203333333333327	0.05089333333333332	0.4
864.6533532474011	0.21603333333333324	0.05221333333333331	0.4
864.9868907831569	0.21269999999999992	0.05057333333333332	0.4
864.9868907831569	0.20906666666666662	0.049773333333333315	0.4
864.9398516105725	0.20459999999999995	0.049206666666666656	0.4
865.8258903139789	0.1961333333333333	0.04739333333333332	0.4
865.8258903139789	0.20499999999999993	0.05021333333333332	0.4
866.4337808968505	0.17936666666666662	0.047399999999999984	0.4
866.4338158087533	0.17936666666666662	0.04692666666666665	0.4
866.5824085535753	0.16909999999999992	0.04687333333333332	0.4
866.5824085535753	0.16809999999999992	0.04687333333333332	0.4
867.865173878802	0.16079999999999994	0.04497333333333331	0.4
868.0060115736767	0.14066666666666658	0.04187999999999998	0.4
868.0060115736767	0.14493333333333325	0.04430666666666665	0.4
868.0586585479599	0.15113333333333326	0.04701333333333332	0.4
868.2150233046935	0.15043333333333325	0.04656666666666665	0.4
868.3940558670655	0.14596666666666658	0.04542666666666666	0.4
868.3940558670655	0.14533333333333323	0.04546666666666665	0.4
868.3939867069812	0.14683333333333323	0.04641333333333332	0.4
868.3940566632713	0.15056666666666657	0.04842666666666666	0.4
868.3940566632713	0.1482999999999999	0.04751333333333332	0.4
868.5073632329548	0.1482999999999999	0.045666666666666654	0.4
868.6171706421447	0.14529999999999993	0.045666666666666654	0.4
868.6171706421447	0.13086666666666658	0.040579999999999984	0.4
868.8432417976965	0.1284999999999999	0.04028666666666665	0.4
868.8432148945511	0.11576666666666653	0.036573333333333305	0.4
868.9529839262586	0.11059999999999985	0.03450666666666664	0.4
868.9529839262586	0.11283333333333322	0.035053333333333304	0.4
868.95298972941	0.11439999999999988	0.036359999999999976	0.4
869.2919968685865	0.11159999999999987	0.03601999999999998	0.4
869.2919968685865	0.059766666666666544	0.02113999999999998	0.4
868.2161474373144	0.14376666666666657	0.04447999999999998	0.4
868.0600905408256	0.14839999999999992	0.046473333333333325	0.4
868.0583563378245	0.1525999999999999	0.04745333333333333	0.4
867.926665747689	0.15253333333333324	0.04723999999999999	0.4
867.926665747689	0.1458666666666666	0.04405333333333332	0.4
867.9273542383485	0.1442333333333332	0.04343333333333332	0.4
855.1684804396099	0.17949999999999994	0.048039999999999985	0.4
855.1684804396099	0.17949999999999994	0.04739333333333332	0.4
866.790518246658	0.1750333333333333	0.04787999999999999	0.4
865.6669765681925	0.1768333333333333	0.04787999999999999	0.4
865.2071615431144	0.1701666666666666	0.04639999999999998	0.4
865.2071615431144	0.19063333333333327	0.04667999999999998	0.4
864.8753277095293	0.20039999999999994	0.04826666666666665	0.4
864.7634454442634	0.2030666666666666	0.04819333333333332	0.4
864.7634454442634	0.22956666666666653	0.05569333333333332	0.4
864.7588278427753	0.22929999999999987	0.055959999999999975	0.4
864.6523949195766	0.22126666666666656	0.053486666666666655	0.4
864.5379145353246	0.21423333333333328	0.051286666666666654	0.4
864.5379145353246	0.22289999999999988	0.053906666666666644	0.4
864.0157319491585	0.23176666666666657	0.05568666666666664	0.4
864.319186621658	0.23176666666666657	0.052979999999999985	0.4
864.319186621658	0.22399999999999987	0.050093333333333316	0.4
864.3190807340271	0.21316666666666662	0.050093333333333316	0.4
864.1015875275175	0.24106666666666654	0.05639333333333331	0.4
864.0980252205218	0.26256666666666656	0.06068666666666664	0.4
864.0980252205218	0.25233333333333324	0.058866666666666644	0.4
862.7009283861045	0.2313333333333332	0.05465999999999997	0.4
862.4358000291578	0.24966666666666654	0.053946666666666636	0.4
862.4358000291578	0.2617333333333332	0.05553999999999997	0.4
862.4370238855282	0.2861666666666665	0.05962666666666665	0.4
862.4377596634648	0.2872333333333332	0.05966666666666664	0.4
862.4377596634648	0.28546666666666654	0.055599999999999976	0.4
861.2225714517988	0.28546666666666654	0.05350666666666664	0.4
861.2225714517988	0.27469999999999983	0.05837333333333331	0.4
861.0009027242013	0.30086666666666656	0.05837333333333331	0.4
861.0009027242013	0.3128666666666665	0.06089333333333331	0.4
861.0009027242013	0.3156999999999998	0.061013333333333315	0.4
860.8920618700972	0.3179333333333332	0.06071333333333331	0.4
860.669620371223	0.3321666666666665	0.06317333333333332	0.4
860.669620371223	0.3324666666666665	0.06227999999999997	0.4
860.5573144413618	0.3198999999999999	0.06055333333333331	0.4
860.5566849461858	0.3126999999999998	0.05907999999999998	0.4
860.2320067664211	0.31916666666666654	0.060133333333333316	0.4
860.2320067664211	0.3150666666666665	0.05895999999999997	0.4
860.2319734071141	0.31623333333333314	0.05942666666666664	0.4
860.2317021589122	0.31623333333333314	0.061813333333333324	0.4
860.2317021589122	0.33526666666666655	0.06353333333333332	0.4
860.1673878405545	0.3466333333333332	0.06353333333333332	0.4
858.6945575862577	0.3714333333333332	0.06838666666666664	0.4
858.6945005874097	0.46359999999999996	0.0785733333333333	0.4
858.6945005874097	0.4767999999999999	0.08045999999999998	0.4
858.6935423429095	0.4811666666666666	0.08082666666666663	0.4
858.6936106864381	0.4826999999999999	0.08096666666666665	0.4
858.693543913163	0.48823333333333313	0.08159333333333331	0.4
858.693543913163	0.4893999999999999	0.08199999999999998	0.4
858.4733431756054	0.47133333333333327	0.07848666666666664	0.4
857.3802470106264	0.48016666666666663	0.07696666666666663	0.4
857.3802470106264	0.48016666666666663	0.07630666666666663	0.4
857.274210090537	0.4766999999999999	0.08329999999999999	0.4
857.2735929157071	0.5288666666666666	0.08329999999999999	0.4
857.0017668973607	0.5657666666666665	0.08915333333333332	0.4
857.0017668973607	0.5764333333333332	0.08925333333333332	0.4
857.0017704423543	0.5962333333333332	0.09143333333333334	0.4
856.8371294783921	0.5722999999999998	0.08847999999999999	0.4
856.8371294783921	0.5562999999999999	0.08622666666666665	0.4
856.8370020719433	0.5657999999999997	0.08787333333333333	0.4
856.6167278962129	0.6231333333333333	0.09533333333333334	0.4
856.6176198875283	0.6634	0.10118666666666665	0.4
856.6176198875283	0.6700333333333333	0.10181333333333333	0.4
856.6153489024596	0.6700333333333333	0.09599999999999999	0.4
856.5086812645766	0.6331666666666665	0.08690666666666665	0.4
856.508756738894	0.5682666666666665	0.08690666666666665	0.4
856.508756738894	0.5674999999999998	0.08661999999999999	0.4
856.28510762733	0.5911999999999998	0.08938666666666666	0.4
856.0744517233279	0.6022999999999998	0.09022666666666665	0.4
856.0744517233279	0.6786333333333332	0.10125333333333332	0.4
856.074445444832	0.6979666666666667	0.1035933333333333	0.4
856.0745679345299	0.6997000000000001	0.10441999999999997	0.4
854.7639436340834	0.6338666666666666	0.09379333333333333	0.4
854.7639436340834	0.5849666666666665	0.08524666666666665	0.4
854.715592268221	0.5512333333333331	0.08083999999999998	0.4
854.715600665245	0.5594666666666666	0.0821733333333333	0.4
854.5532896270306	0.5594666666666666	0.08054666666666664	0.4
854.5532896270306	0.5478	0.07922	0.4
854.5518752075151	0.5398666666666666	0.07922	0.4
853.9118685087217	0.5245666666666665	0.07745999999999997	0.4
853.9118685087217	0.5689666666666665	0.08267333333333331	0.4
853.3096604526229	0.6108999999999999	0.08608666666666666	0.4
853.0933885338019	0.5585666666666665	0.0794733333333333	0.4
853.093345057593	0.6010666666666666	0.08455999999999998	0.4
853.093345057593	0.6108999999999999	0.08551999999999997	0.4
852.9260077439344	0.6124666666666665	0.08486666666666665	0.4
852.9260347138656	0.6433333333333331	0.08912666666666666	0.4
852.9260347138656	0.6380999999999998	0.08875333333333331	0.4
852.9260366998027	0.6196333333333333	0.08595333333333331	0.4
852.6624902564987	0.6196333333333333	0.07445999999999996	0.4
852.7536769103699	0.5431999999999999	0.07445999999999996	0.4
852.7536769103699	0.5661333333333333	0.0774333333333333	0.4
852.4441707099166	0.6133	0.0832933333333333	0.4
852.4455438132218	0.6175	0.08361999999999997	0.4
852.4455438132218	0.6127333333333334	0.08347333333333332	0.4
852.3867203694317	0.5766999999999998	0.07941999999999998	0.4
852.0629635801934	0.5895333333333332	0.08040666666666664	0.4
850.6626821128742	0.6120999999999998	0.08240666666666664	0.4
850.6626821128742	0.6684666666666668	0.08595333333333331	0.4
850.6626651366589	0.6955666666666667	0.08970666666666666	0.4
850.6627156020442	0.6955666666666667	0.09018666666666665	0.4
850.6627156020442	0.7001333333333334	0.08343333333333332	0.4
849.268437759445	0.6560666666666667	0.08343333333333332	0.4
849.2455711622363	0.6651333333333332	0.08523999999999998	0.4
849.1141505329916	0.6875999999999999	0.08791333333333332	0.4
849.1141505329916	0.7027666666666667	0.08921333333333333	0.4
848.8406353305406	0.6548333333333333	0.08302666666666665	0.4
848.8406353305406	0.6329999999999999	0.08077333333333331	0.4
848.8406353305406	0.6892	0.08677333333333333	0.4
848.7345076036167	0.6996666666666667	0.08833999999999999	0.4
848.6253833634061	0.7045666666666667	0.08951999999999999	0.4
847.1323596750677	0.6983666666666667	0.08841999999999998	0.4
847.1323596750677	0.6103666666666665	0.07638666666666664	0.4
846.9769298927616	0.6103666666666665	0.08500666666666665	0.4
846.5967847815006	0.6780666666666667	0.08387999999999998	0.4
846.5967847815006	0.6817333333333333	0.08387999999999998	0.4
845.9611958690193	0.6811333333333333	0.08277333333333331	0.4
845.853312330838	0.6910333333333332	0.08391333333333331	0.4
845.642668655287	0.7259666666666666	0.08785333333333331	0.4
845.642668655287	0.7348666666666666	0.08837999999999999	0.4
845.3242250851372	0.7581333333333332	0.09011333333333332	0.4
845.2158709704039	0.7434666666666665	0.08899333333333333	0.4
845.1117891545539	0.7124666666666667	0.08530666666666666	0.4
845.1117891545539	0.7080000000000001	0.08533333333333332	0.4
845.004541109847	0.7687999999999998	0.09140666666666665	0.4
845.0045328760215	0.7741666666666664	0.09192	0.4
845.0045328760215	0.7741666666666664	0.08729999999999997	0.4
844.945386301515	0.7309	0.09320666666666666	0.4
844.7934074160338	0.7845999999999999	0.09320666666666666	0.4
843.6310044223701	0.8159333333333333	0.09599333333333333	0.4
843.6310044223701	0.8456666666666666	0.09826666666666665	0.4
843.6284574921323	0.8542	0.09910666666666665	0.4
843.101926318375	0.7819999999999999	0.09106666666666666	0.4
843.101926318375	0.7770999999999999	0.09119999999999998	0.4
843.101926318375	0.8355333333333332	0.09788666666666666	0.4
843.1028332723366	0.8485333333333334	0.09990666666666664	0.4
843.1028332723366	0.8192999999999999	0.09634666666666666	0.4
842.4672489678112	0.7771333333333332	0.09241333333333332	0.4
842.1516044646764	0.7771333333333332	0.08871333333333332	0.4
842.151843894017	0.7378666666666667	0.08796	0.4
842.151843894017	0.7292999999999998	0.08796	0.4
841.7300477987081	0.7413666666666665	0.08925333333333332	0.4
841.7304534985306	0.8406333333333331	0.10229333333333332	0.4
841.7305799436855	0.8574	0.10384666666666664	0.4
841.7305799436855	0.8495666666666667	0.10369333333333332	0.4
841.4150182339608	0.8027666666666665	0.10037999999999998	0.4
841.3105199295784	0.7413	0.09422666666666665	0.4
841.3105199295784	0.7007666666666668	0.08963333333333331	0.4
841.309979904325	0.6983333333333334	0.08931333333333333	0.4
841.3092867759173	0.6777333333333333	0.088	0.4
840.9946494352043	0.6592333333333332	0.08760666666666665	0.4
840.9946494352043	0.6592333333333332	0.08937333333333332	0.4
840.9944045116564	0.6774999999999999	0.08937333333333332	0.4
840.8901079264708	0.7292666666666666	0.09691333333333332	0.4
840.8901079264708	0.7900999999999999	0.10574666666666664	0.4
840.890128683629	0.7884333333333332	0.10564666666666664	0.4
839.5267756864557	0.6401333333333332	0.09640666666666665	0.4
839.5268611912343	0.5836666666666666	0.09753999999999999	0.4
839.5268611912343	0.5724999999999998	0.09690666666666667	0.4
839.4228162004081	0.5631333333333332	0.09622666666666667	0.4
839.4225872350275	0.5596333333333331	0.09612	0.4
839.4225872350275	0.5049333333333332	0.09094000000000001	0.4
839.1081538260007	0.4600999999999999	0.08699999999999998	0.4
839.1077679455444	0.4600999999999999	0.08701333333333333	0.4
838.6910850167881	0.4600333333333333	0.09008	0.4
838.6910850167881	0.4551666666666667	0.09008	0.4
838.2732647987264	0.40656666666666663	0.09640666666666665	0.4
838.1703138481092	0.33686666666666654	0.09141333333333333	0.4
838.1703138481092	0.2837333333333332	0.09564	0.4
838.067971119214	0.2797333333333332	0.09751333333333333	0.4
837.7538154880359	0.21303333333333327	0.09300666666666664	0.4
837.7537898330246	0.18253333333333327	0.08988666666666664	0.4
837.7537898330246	0.17583333333333326	0.09057999999999998	0.4
837.3380750503452	0.14389999999999992	0.09521333333333333	0.4
837.3383147109597	0.1399999999999999	0.09655333333333334	0.4
837.3383147109597	0.1399999999999999	0.09684	0.4
837.2320416771298	0.13983333333333325	0.09613333333333332	0.4
837.0245831720956	0.13156666666666658	0.09613333333333332	0.4
836.8157698789835	0.12409999999999989	0.09929333333333332	0.4
836.8157698789835	0.10209999999999987	0.09612	0.4
836.8157842216235	0.08966666666666652	0.09206666666666666	0.4
836.088266240358	0.08413333333333319	0.09205999999999999	0.4
836.088266240358	0.03906666666666659	0.08560666666666666	0.4
835.6730026303807	0.027966666666666584	0.08651333333333332	0.4
835.6734795127827	0.01993333333333324	0.09524666666666666	0.4
835.4674114657664	0.01596666666666657	0.09799999999999999	0.4
835.4674114657664	0.0034333333333332254	0.09601999999999998	0.4
835.3623566428572	0.005699999999999894	0.0983	0.4
835.2593756587589	0.005699999999999894	0.09641333333333334	0.4
835.2593756587589	0.003133333333333225	0.09641333333333334	0.4
834.7873536501816	0.0003999999999998893	0.08956666666666666	0.4
834.2270280479798	0.003566666666666781	0.09102666666666666	0.4
834.2270617825501	0.008533333333333452	0.09478666666666667	0.4
834.2270617825501	0.006700000000000117	0.09486666666666667	0.4
833.9158521819504	0.007933333333333452	0.09019333333333333	0.4
833.4018884117049	0.009233333333333453	0.08708666666666666	0.4
833.4018884117049	0.009700000000000118	0.09287999999999999	0.4
833.4019734818112	0.009666666666666787	0.09359333333333333	0.4
833.3998983799594	0.009266666666666786	0.09308	0.4
833.3998795086193	0.009266666666666786	0.09118	0.4
833.3998795086193	0.008866666666666785	0.09172666666666665	0.4
832.4735555801865	0.009466666666666786	0.09172666666666665	0.4
832.16725051635	0.009466666666666786	0.09389333333333333	0.4
832.16725051635	0.009666666666666787	0.09162666666666666	0.4
831.7517633685683	0.009433333333333451	0.09366666666666666	0.4
831.7539251199572	0.009700000000000118	0.08621999999999998	0.4
831.3426363561048	0.009533333333333453	0.08730666666666664	0.4
831.3426363561048	0.009733333333333453	0.08991999999999999	0.4
831.0355502337801	0.009766666666666786	0.09243333333333333	0.4
830.9319389187283	0.009666666666666787	0.08973333333333332	0.4
830.9319389187283	0.009566666666666786	0.07863999999999997	0.4
830.932055011858	0.009566666666666786	0.0740133333333333	0.4
830.4207561935312	0.00980000000000012	0.06436666666666666	0.4
830.4207561935312	0.00950000000000012	0.06436666666666666	0.4
830.0128745070349	0.009666666666666787	0.0631333333333333	0.4
830.0109448387725	0.00980000000000012	0.042493333333333314	0.4
829.9095172760946	0.009633333333333454	0.04240666666666665	0.4
829.9095172760946	0.009266666666666786	0.040526666666666655	0.4
829.9094869535231	0.00980000000000012	0.03947999999999998	0.4
829.4999466128921	0.009166666666666785	0.02307999999999998	0.4
829.4999466128921	0.007200000000000118	0.020986666666666653	0.4
829.5000881113128	0.009166666666666785	0.02078666666666665	0.4
829.3998170358988	0.008266666666666785	0.020206666666666654	0.4
828.8281594608163	0.008266666666666785	0.014126666666666654	0.4
828.8281594608163	0.0074666666666667846	0.006606666666666645	0.4
828.6856741334959	0.00990000000000012	0.006606666666666645	0.4
828.6856110050463	0.00980000000000012	0.0066399999999999775	0.4
828.6856110050463	0.00940000000000012	0.006646666666666645	0.4
828.2775059134493	0.009533333333333453	0.005319999999999978	0.4
828.2774840101938	0.00980000000000012	0.005266666666666644	0.4
828.2775531147493	0.00940000000000012	0.005079999999999977	0.4
828.2775531147493	0.00980000000000012	0.0049933333333333114	0.4
828.2775531147493	0.009533333333333453	0.004139999999999979	0.4
827.9696603404444	0.009700000000000118	0.004093333333333312	0.4
827.9696603404444	0.009166666666666785	0.0035466666666666463	0.4
826.9564534171744	0.009166666666666785	0.002926666666666647	0.4
826.9565174024358	0.009766666666666786	0.002899999999999981	0.4
826.9564729674199	0.009866666666666786	0.002899999999999981	0.4
826.9564729674199	0.009833333333333453	0.0029866666666666475	0.4
826.0443045232303	0.009700000000000118	0.0028466666666666475	0.4
826.0443286728172	0.00950000000000012	0.002693333333333315	0.4
826.0443236046183	0.00940000000000012	0.0025333333333333154	0.4
826.0443236046183	0.009533333333333453	0.0026999999999999815	0.4
826.0442827781377	0.009600000000000119	0.002673333333333315	0.4
826.0442942803032	0.009933333333333454	0.0025599999999999816	0.4
826.0442942803032	0.00980000000000012	0.002573333333333315	0.4
825.7372261435903	0.00980000000000012	0.002553333333333315	0.4
825.7382037674164	0.009633333333333454	0.0026266666666666483	0.4
825.6397241815889	0.009833333333333453	0.0026266666666666483	0.4
825.6397241815889	0.009833333333333453	0.0027266666666666477	0.4
824.8306026125276	0.009466666666666786	0.002733333333333315	0.4
824.8306877929318	0.009933333333333454	0.0025733333333333155	0.4
824.8306877929318	0.009766666666666786	0.0026133333333333147	0.4
824.8306706330292	0.009833333333333453	0.0027266666666666477	0.4
824.4262925440277	0.009633333333333454	0.002613333333333315	0.4
824.4264286952033	0.009866666666666786	0.002699999999999981	0.4
824.4264286952033	0.009766666666666786	0.0026266666666666487	0.4
824.4222266260024	0.01000000000000012	0.0024666666666666487	0.4
823.7197491930771	0.01000000000000012	0.0026199999999999817	0.4
823.7197491930771	0.009966666666666785	0.0025333333333333154	0.4
822.7166710098176	0.009866666666666786	0.0025333333333333154	0.4
822.7137392006094	0.009833333333333453	0.0026199999999999817	0.4
822.7137392006094	0.009833333333333453	0.002486666666666649	0.4
822.4758100625409	0.009733333333333453	0.002499999999999982	0.4
822.3133816171248	0.009966666666666785	0.0026133333333333147	0.4
822.2145998842087	0.00990000000000012	0.0025266666666666484	0.4
822.2145998842087	0.00980000000000012	0.002546666666666648	0.4
822.2139269336504	0.009933333333333454	0.0026866666666666484	0.4
822.2138170438653	0.00980000000000012	0.0025866666666666486	0.4
822.2138170438653	0.00980000000000012	0.002586666666666648	0.4
821.9146915320089	0.009966666666666785	0.0025999999999999817	0.4
821.9151885843085	0.009966666666666785	0.0025333333333333154	0.4
821.3116384364065	0.009766666666666786	0.0026199999999999817	0.4
821.3116384364065	0.00990000000000012	0.0026199999999999817	0.4
821.0113167969796	0.00990000000000012	0.0024799999999999822	0.4
821.0122405030513	0.00980000000000012	0.0026733333333333145	0.4
821.0122405030513	0.00990000000000012	0.0025399999999999815	0.4
821.0124656511662	0.00990000000000012	0.0025466666666666485	0.4
820.6108919026049	0.009733333333333453	0.002573333333333315	0.4
820.6108624844541	0.009666666666666787	0.0024466666666666487	0.4
820.6108624844541	0.009733333333333453	0.0025666666666666485	0.4
