wavelength(nm)	flourescence PMT(V)	ti_saph Power (V)	Gain (V)
750.323432985018	0.05529999999999994	2.782666666666667	1.0
750.323432985018	0.05449999999999993	2.782666666666667	1.0
750.323432985018	0.0548666666666666	2.852933333333333	1.0
750.323432985018	0.05349999999999994	2.8987999999999996	1.0
750.8426201283722	0.056233333333333274	2.9776	1.0
750.8426201283722	0.056166666666666615	2.9917333333333334	1.0
750.8426201283722	0.05359999999999993	2.817466666666667	1.0
751.903424558924	0.05933333333333328	2.756	1.0
751.903424558924	0.056066666666666605	2.7537333333333334	1.0
752.1552385246912	0.05629999999999994	2.85	1.0
752.1552385246912	0.052999999999999936	3.0958666666666668	1.0
752.1563686414061	0.05919999999999995	3.106	1.0
752.1563686414061	0.05919999999999995	2.8805333333333327	1.0
752.91087664617	0.05799999999999995	2.8690666666666664	1.0
752.91087664617	0.05493333333333328	2.8690666666666664	1.0
752.91087664617	0.05946666666666662	2.879066666666666	1.0
753.2457843654784	0.0551666666666666	2.880666666666666	1.0
753.2457843654784	0.053966666666666614	2.7990666666666666	1.0
753.2449390885027	0.05383333333333327	2.7654666666666667	1.0
753.2449390885027	0.053133333333333276	2.821066666666667	1.0
753.5806467120887	0.05459999999999994	2.8536000000000006	1.0
753.5806467120887	0.05519999999999994	3.0052	1.0
753.9181580339416	0.056566666666666605	2.8448	1.0
753.9181580339416	0.056266666666666604	3.018266666666667	1.0
753.9181580339416	0.0580666666666666	2.9394666666666667	1.0
754.7552796891238	0.0580666666666666	2.799866666666667	1.0
754.7552796891238	0.05569999999999993	2.714533333333333	1.0
754.757002361669	0.05043333333333327	2.714533333333333	1.0
754.757002361669	0.05476666666666661	2.720133333333333	1.0
755.0142195139898	0.05249999999999994	2.7232	1.0
755.0142195139898	0.05369999999999994	2.721599999999999	1.0
755.0142195139898	0.0549666666666666	2.7728	1.0
755.8537620932088	0.05349999999999994	2.8012000000000006	1.0
755.8537620932088	0.0527666666666666	2.8427999999999995	1.0
755.8535763490032	0.05683333333333328	2.8524000000000003	1.0
755.8535763490032	0.05579999999999993	2.8602666666666665	1.0
756.1097162383747	0.051699999999999934	2.8608000000000002	1.0
756.1097162383747	0.051266666666666606	2.8631999999999995	1.0
756.1920617240614	0.051266666666666606	2.848933333333333	1.0
756.1920617240614	0.05373333333333328	2.842533333333334	1.0
756.1920617240614	0.051933333333333276	2.842533333333334	1.0
756.5325012627171	0.056899999999999944	2.9983999999999997	1.0
756.5325012627171	0.05629999999999993	2.9625333333333335	1.0
756.8706156233777	0.05369999999999994	2.816133333333333	1.0
756.8706156233777	0.05493333333333328	2.7503999999999995	1.0
756.8706156233777	0.05446666666666661	2.7217333333333333	1.0
756.8706156233777	0.05619999999999994	2.732933333333333	1.0
757.7137930549038	0.054199999999999936	2.6797333333333335	1.0
757.7137930549038	0.05579999999999993	2.708666666666667	1.0
757.7137930549038	0.05309999999999994	2.7904000000000004	1.0
757.9725061442713	0.05913333333333327	2.815466666666667	1.0
757.9725061442713	0.05913333333333327	2.877066666666667	1.0
758.8213285327688	0.054733333333333266	2.937466666666667	1.0
758.8213285327688	0.050466666666666604	2.937466666666667	1.0
758.8203939455714	0.05643333333333327	2.9157333333333333	1.0
758.8203939455714	0.05439999999999993	2.8345333333333333	1.0
758.8203939455714	0.05429999999999994	2.834666666666667	1.0
759.0772160746035	0.054033333333333274	2.8029333333333337	1.0
759.0772160746035	0.0567666666666666	2.7997333333333336	1.0
759.0771427370923	0.055066666666666604	2.799866666666667	1.0
759.0771427370923	0.05256666666666661	2.8194666666666666	1.0
758.8186183785789	0.0540666666666666	2.938	1.0
758.8186183785789	0.05373333333333328	3.1025333333333336	1.0
761.8914171965391	0.05373333333333328	3.3178666666666667	1.0
761.8914171965391	0.05723333333333328	3.4189333333333334	1.0
761.8914171965391	0.05653333333333326	3.467066666666667	1.0
762.0710020732749	0.059066666666666615	3.467066666666667	1.0
762.0710020732749	0.05566666666666661	3.3657333333333335	1.0
762.0671084270732	0.05509999999999995	3.3653333333333335	1.0
762.0671084270732	0.05576666666666661	3.360133333333333	1.0
762.1505951331781	0.054166666666666606	3.3458666666666668	1.0
762.1505951331781	0.05563333333333328	3.317333333333334	1.0
762.1520363021086	0.05903333333333328	3.303466666666667	1.0
762.1520363021086	0.055533333333333275	3.3309333333333333	1.0
762.1520363021086	0.05383333333333327	3.223066666666667	1.0
762.1520363021086	0.055533333333333275	3.1012000000000004	1.0
762.1520363021086	0.05713333333333328	3.1712	1.0
763.6140428296243	0.05713333333333328	3.2528000000000006	1.0
763.6140428296243	0.055099999999999934	3.329466666666667	1.0
763.616351336269	0.058299999999999935	3.329466666666667	1.0
763.616351336269	0.057866666666666594	3.3691999999999998	1.0
763.9612792272205	0.05896666666666661	3.2177333333333333	1.0
763.9612792272205	0.05469999999999994	3.2689333333333335	1.0
763.9612792272205	0.05629999999999993	3.3668	1.0
763.961773079047	0.056699999999999945	3.3695999999999997	1.0
763.961773079047	0.05766666666666661	3.3020000000000005	1.0
763.9617529462065	0.05369999999999994	3.2064	1.0
763.9617529462065	0.05843333333333327	3.1305333333333336	1.0
763.9626755656169	0.056066666666666605	3.064	1.0
763.9626755656169	0.05629999999999994	3.288	1.0
764.907607346219	0.053899999999999934	3.1894666666666667	1.0
764.907607346219	0.053899999999999934	3.182266666666667	1.0
764.907607346219	0.05703333333333327	3.182266666666667	1.0
764.9063404046998	0.056333333333333284	3.2196000000000002	1.0
764.9063404046998	0.0568666666666666	3.1835999999999998	1.0
764.9046063207138	0.054533333333333274	3.1872	1.0
764.9046063207138	0.05866666666666661	3.216933333333333	1.0
764.9062710713714	0.053899999999999934	3.2632000000000003	1.0
764.9062710713714	0.0542666666666666	3.290933333333334	1.0
764.9062710713714	0.057866666666666615	3.333066666666667	1.0
764.9076506404564	0.0574666666666666	3.254533333333333	1.0
764.9076506404564	0.0551666666666666	3.112133333333334	1.0
765.4348396051236	0.053366666666666604	3.299466666666667	1.0
765.4348396051236	0.053366666666666604	3.4887999999999995	1.0
765.514794939538	0.05683333333333328	3.5604000000000005	1.0
765.514794939538	0.05566666666666661	3.5604000000000005	1.0
765.9482742586655	0.05723333333333327	3.5265333333333335	1.0
765.9482742586655	0.055099999999999934	3.0736	1.0
765.9482742586655	0.05693333333333328	3.4734666666666665	1.0
765.95069207937	0.05843333333333327	3.5569333333333337	1.0
765.95069207937	0.0558666666666666	3.557866666666667	1.0
765.95069207937	0.06193333333333328	3.3132	1.0
765.95069207937	0.05459999999999994	3.2186666666666666	1.0
767.0784201089024	0.057266666666666605	3.2920000000000003	1.0
767.0784201089024	0.05729999999999995	3.268933333333334	1.0
767.0790279883264	0.056233333333333274	3.2254666666666667	1.0
767.0790279883264	0.056233333333333274	3.2030666666666665	1.0
767.0790279883264	0.05579999999999993	3.2981333333333334	1.0
767.7745751723863	0.05719999999999994	3.2981333333333334	1.0
767.7745751723863	0.05846666666666662	3.2272000000000003	1.0
767.9450305139744	0.05449999999999993	3.1802666666666664	1.0
767.9450305139744	0.05649999999999994	3.4566666666666666	1.0
767.9451724128335	0.06069999999999994	3.552400000000001	1.0
767.9451724128335	0.053899999999999934	3.560000000000001	1.0
768.1252032803862	0.0542666666666666	3.5481333333333334	1.0
768.1252032803862	0.057166666666666616	3.457200000000001	1.0
768.1252032803862	0.0546666666666666	3.4021333333333335	1.0
768.2911155296512	0.05659999999999994	3.261733333333334	1.0
768.2911155296512	0.058299999999999935	3.605733333333333	1.0
768.2911155296512	0.05719999999999994	3.1082666666666667	1.0
768.2911155296512	0.05719999999999994	3.0725333333333333	1.0
768.9090872674567	0.05869999999999994	3.0725333333333333	1.0
768.9090872674567	0.0531666666666666	3.3746666666666667	1.0
768.9090872674567	0.05383333333333326	3.354	1.0
768.9936958510285	0.06076666666666661	3.2251999999999996	1.0
768.9936958510285	0.055733333333333274	3.4378666666666673	1.0
770.133551920302	0.057166666666666616	3.3964000000000003	1.0
770.133551920302	0.054033333333333274	3.3973333333333335	1.0
770.1335234625174	0.05383333333333327	3.423200000000001	1.0
770.1335234625174	0.056166666666666615	3.446133333333334	1.0
770.531382298734	0.05516666666666661	3.4796000000000005	1.0
770.531382298734	0.0612666666666666	3.5545333333333335	1.0
770.531382298734	0.0612666666666666	3.2182666666666666	1.0
770.9229531886166	0.0540666666666666	3.1165333333333334	1.0
770.9229531886166	0.05443333333333328	3.1774666666666667	1.0
770.9246879978083	0.05953333333333327	3.1774666666666667	1.0
770.9246879978083	0.05633333333333327	3.4764000000000004	1.0
770.9246879978083	0.05779999999999994	3.7568000000000006	1.0
770.9246879978083	0.05699999999999993	3.662533333333333	1.0
771.7151871671205	0.05476666666666661	3.598533333333333	1.0
771.7151871671205	0.057599999999999936	3.744666666666667	1.0
771.7151871671205	0.05839999999999994	3.7928000000000006	1.0
771.7151871671205	0.05753333333333328	3.5381333333333336	1.0
771.7151871671205	0.05586666666666661	3.180133333333333	1.0
772.068935718649	0.0592666666666666	3.1648	1.0
772.068935718649	0.05703333333333327	3.1718666666666664	1.0
773.2159278858269	0.05703333333333327	3.3758666666666666	1.0
773.2159278858269	0.05776666666666661	3.4332000000000003	1.0
773.3004299707382	0.06043333333333327	3.4332000000000003	1.0
773.3004299707382	0.05939999999999994	3.4161333333333337	1.0
773.3004299707382	0.05956666666666661	3.328266666666667	1.0
773.925590761956	0.05913333333333327	3.494666666666667	1.0
773.925590761956	0.05869999999999994	3.4965333333333333	1.0
773.9248584241597	0.057733333333333275	3.4642666666666675	1.0
773.9248584241597	0.06133333333333328	3.2626666666666666	1.0
774.0971935281642	0.0568666666666666	3.1033333333333335	1.0
774.0971935281642	0.05956666666666661	3.2214666666666667	1.0
774.0971935281642	0.058933333333333275	3.670933333333334	1.0
774.0971935281642	0.059966666666666606	3.8786666666666663	1.0
774.0971935281642	0.059966666666666606	3.8768	1.0
774.8101245398818	0.0593666666666666	3.8478666666666665	1.0
774.8101245398818	0.0611666666666666	3.8478666666666665	1.0
774.8101245398818	0.060199999999999934	3.837866666666667	1.0
774.8101245398818	0.057599999999999936	3.6399999999999992	1.0
775.1640662420571	0.06073333333333327	3.6377333333333324	1.0
775.1640662420571	0.05786666666666661	3.4018666666666673	1.0
775.2508342496627	0.05843333333333327	3.3618666666666663	1.0
775.2508342496627	0.05763333333333327	3.410266666666667	1.0
775.2508342496627	0.05956666666666661	3.5504000000000002	1.0
775.2508342496627	0.061399999999999934	3.6058666666666666	1.0
775.2508342496627	0.06259999999999996	3.6033333333333335	1.0
776.3237892246163	0.06346666666666662	3.618533333333333	1.0
776.3237892246163	0.06346666666666662	3.498	1.0
776.3237892246163	0.06253333333333327	3.498	1.0
776.3237892246163	0.059033333333333264	3.7528000000000006	1.0
776.3237892246163	0.06116666666666661	3.792533333333334	1.0
777.0393542336889	0.059099999999999944	3.6881333333333335	1.0
777.0393542336889	0.06153333333333328	3.4257333333333335	1.0
777.2134785035514	0.061666666666666606	3.3901333333333334	1.0
777.2134785035514	0.06413333333333326	3.6302666666666665	1.0
777.4842516391502	0.06413333333333328	3.9218666666666664	1.0
777.4842516391502	0.059233333333333284	3.976	1.0
777.9285266241739	0.06079999999999994	4.142400000000001	1.0
777.9285266241739	0.06376666666666661	4.001733333333333	1.0
777.9285266241739	0.06376666666666661	3.6165333333333334	1.0
778.2862002757702	0.061133333333333276	3.5088000000000004	1.0
778.2862002757702	0.06369999999999994	3.5088000000000004	1.0
778.2862213208371	0.06196666666666661	3.4433333333333334	1.0
778.2862213208371	0.06003333333333328	3.4421333333333335	1.0
779.3704267187461	0.06076666666666661	3.5589333333333326	1.0
779.3704267187461	0.06573333333333328	3.7565333333333335	1.0
779.8149524705209	0.06299999999999994	3.780133333333333	1.0
779.8149524705209	0.0643666666666666	3.5624000000000002	1.0
779.8149524705209	0.06529999999999994	3.7342666666666666	1.0
779.8149524705209	0.06873333333333327	3.7872000000000012	1.0
779.8149524705209	0.07216666666666662	3.7574666666666676	1.0
780.2630035964777	0.06873333333333327	3.5341333333333336	1.0
780.2630035964777	0.06873333333333327	3.5285333333333333	1.0
780.5378219286762	0.07069999999999996	3.8184	1.0
780.5378219286762	0.07023333333333329	3.8184	1.0
781.2615953448449	0.06719999999999994	3.9670666666666663	1.0
781.2615953448449	0.07263333333333329	4.118	1.0
781.2615953448449	0.0713666666666666	4.040933333333333	1.0
781.4351915216162	0.0683666666666666	4.039333333333334	1.0
781.4351915216162	0.07286666666666662	3.9284	1.0
781.4355887956186	0.07299999999999995	3.4971999999999994	1.0
781.4355887956186	0.07436666666666661	3.4881333333333333	1.0
782.612948049842	0.07333333333333329	3.7524	1.0
782.612948049842	0.07529999999999995	3.7950666666666666	1.0
782.612948049842	0.07529999999999995	3.789333333333334	1.0
782.6129218850581	0.08139999999999996	3.730800000000001	1.0
782.6129218850581	0.07666666666666662	3.654666666666667	1.0
782.9768335650465	0.08303333333333329	3.654666666666667	1.0
782.9768335650465	0.07616666666666662	3.8152000000000004	1.0
783.3412972256666	0.08249999999999995	3.8787999999999996	1.0
783.3412972256666	0.0800666666666666	3.8523999999999994	1.0
783.3412972256666	0.0903333333333333	3.7637333333333336	1.0
783.3412972256666	0.08176666666666663	3.683066666666667	1.0
783.3412972256666	0.08359999999999995	3.602	1.0
783.7031861527471	0.0879333333333333	3.7649333333333335	1.0
783.7031861527471	0.08729999999999997	4.064	1.0
784.156649453536	0.08619999999999996	3.7541333333333333	1.0
784.156649453536	0.09623333333333328	4.116666666666666	1.0
784.52422419055	0.09623333333333328	4.12	1.0
784.52422419055	0.09983333333333329	4.12	1.0
784.522372109588	0.10429999999999995	4.12	1.0
784.522372109588	0.09599999999999996	4.044933333333334	1.0
784.522372109588	0.09126666666666662	3.683733333333333	1.0
784.6140274271013	0.09109999999999996	3.6377333333333333	1.0
784.6140274271013	0.08726666666666662	3.7112	1.0
784.6140274271013	0.09583333333333328	3.880666666666666	1.0
784.6140274271013	0.09626666666666663	3.8688	1.0
784.6140274271013	0.10563333333333327	4.068133333333334	1.0
784.6140274271013	0.11196666666666663	4.167600000000001	1.0
786.074349301589	0.10976666666666662	3.835466666666666	1.0
786.074349301589	0.10509999999999997	3.79	1.0
786.074349301589	0.10509999999999997	4.125066666666666	1.0
786.074349301589	0.11899999999999997	4.241866666666667	1.0
786.074349301589	0.12319999999999996	4.241866666666667	1.0
786.7210046931386	0.12146666666666661	4.224266666666667	1.0
786.7210046931386	0.1199333333333333	4.1142666666666665	1.0
786.8993151009765	0.12403333333333329	4.0916	1.0
786.8993151009765	0.12806666666666663	4.206266666666666	1.0
787.6316439191714	0.13046666666666662	4.259466666666667	1.0
787.6316439191714	0.14309999999999995	4.342800000000001	1.0
787.6316439191714	0.14379999999999996	4.362133333333334	1.0
787.7233710532518	0.14319999999999997	4.1277333333333335	1.0
787.7233710532518	0.13546666666666662	4.1193333333333335	1.0
787.7233930976821	0.13546666666666662	4.115866666666667	1.0
787.7233930976821	0.14479999999999996	4.173333333333333	1.0
788.0006533017598	0.14643333333333328	4.173333333333333	1.0
788.0006533017598	0.14083333333333328	3.889866666666667	1.0
788.0006533017598	0.1430666666666666	3.799866666666667	1.0
788.0028424254613	0.13589999999999994	3.798666666666667	1.0
788.0028424254613	0.14329999999999993	3.786800000000001	1.0
789.1994501043387	0.1888999999999999	4.039599999999999	1.0
789.1994501043387	0.1852999999999999	4.046133333333333	1.0
789.6603014436081	0.21829999999999994	4.1704	1.0
789.6603014436081	0.22546666666666657	4.280133333333334	1.0
790.1529823063166	0.22869999999999996	4.280533333333333	1.0
790.1529823063166	0.2301666666666666	3.905333333333333	1.0
790.1529823063166	0.2301666666666666	3.795466666666667	1.0
790.0307279141443	0.2321666666666666	3.9760000000000004	1.0
790.0307279141443	0.23833333333333323	3.9760000000000004	1.0
790.8604565925331	0.2716333333333332	4.074133333333333	1.0
790.8604565925331	0.3074999999999999	4.324666666666667	1.0
790.8628249230645	0.3100333333333333	4.447466666666667	1.0
790.8628249230645	0.3066	4.305466666666667	1.0
790.9520951867112	0.29266666666666663	4.116933333333333	1.0
790.9520951867112	0.30089999999999995	4.093733333333334	1.0
790.9520951867112	0.30303333333333327	3.7773333333333334	1.0
790.9520951867112	0.3020666666666666	3.7600000000000007	1.0
790.9520951867112	0.30576666666666663	3.795466666666667	1.0
791.362827990354	0.30576666666666663	3.796666666666667	1.0
791.362827990354	0.29833333333333323	4.322933333333333	1.0
792.4427401729081	0.4452333333333332	4.322933333333333	1.0
792.4427401729081	0.4444333333333333	4.122133333333334	1.0
792.9003474240476	0.4448666666666666	4.0268	1.0
792.9003474240476	0.5267666666666666	4.2598666666666665	1.0
792.9003474240476	0.5269333333333333	4.276666666666666	1.0
793.1851717030648	0.5603333333333332	4.102666666666667	1.0
793.1851717030648	0.5493333333333332	3.9966666666666666	1.0
793.2752842386709	0.5461666666666666	3.8799999999999994	1.0
793.2752842386709	0.5907666666666667	4.054266666666667	1.0
793.7820660702101	0.6481666666666667	4.146133333333334	1.0
793.7820660702101	0.6481666666666667	3.9928000000000003	1.0
794.2450696867336	0.6995	4.407866666666667	1.0
794.2450696867336	0.7885333333333333	4.407866666666667	1.0
794.2450696867336	0.7717666666666666	4.114000000000001	1.0
794.2086927922234	0.7578999999999999	3.9873333333333334	1.0
794.2086927922234	0.7686333333333333	4.002533333333333	1.0
794.2086927922234	0.8154999999999999	3.9297333333333335	1.0
794.2086927922234	0.8335666666666666	3.9326666666666665	1.0
794.5803738858469	0.8765666666666666	4.180533333333334	1.0
794.5803738858469	0.9649000000000001	4.519333333333332	1.0
793.2753108331235	0.5427	3.8234666666666675	1.0
793.2753108331235	0.5458333333333333	4.043333333333333	1.0
793.0327569321291	0.5222666666666665	4.150266666666667	1.0
793.0327569321291	0.4853666666666665	4.029866666666667	1.0
792.809245399914	0.4898333333333333	4.051866666666668	1.0
792.809245399914	0.44026666666666664	4.12	1.0
791.3255688676339	0.44026666666666664	4.119866666666667	1.0
791.3255688676339	0.4304666666666666	3.8750666666666667	1.0
791.3255688676339	0.31259999999999993	3.8750666666666667	1.0
791.3255688676339	0.30773333333333325	3.8272000000000004	1.0
791.3255688676339	0.3048999999999999	3.915733333333333	1.0
791.2311230354657	0.31749999999999995	3.970133333333333	1.0
791.2311230354657	0.3019	4.214266666666667	1.0
790.8637918862928	0.3050333333333333	4.2456	1.0
790.8637918862928	0.3020666666666666	4.282666666666667	1.0
790.8625975892253	0.3095999999999999	4.4308000000000005	1.0
790.8625975892253	0.3128999999999999	4.394000000000001	1.0
790.8625975892253	0.24353333333333324	4.154400000000001	1.0
790.0292283677044	0.24353333333333324	4.217600000000001	1.0
790.0292283677044	0.25566666666666654	3.8721333333333328	1.0
789.9404951348637	0.2370999999999999	3.8721333333333328	1.0
789.9404951348637	0.2211666666666666	4.0572	1.0
789.6574665131049	0.2328999999999999	4.390666666666667	1.0
789.6574665131049	0.2259666666666666	4.44	1.0
789.1994920213453	0.20953333333333327	4.264133333333333	1.0
789.1994920213453	0.1950666666666666	4.234666666666667	1.0
789.1994920213453	0.16033333333333327	3.976	1.0
788.0016406595917	0.14013333333333328	3.8850666666666664	1.0
788.0016406595917	0.1462666666666666	4.003466666666666	1.0
788.0016406595917	0.14509999999999995	4.095466666666666	1.0
788.0016406595917	0.14886666666666662	4.1524	1.0
787.7244096338828	0.14886666666666662	4.280399999999999	1.0
787.7244096338828	0.14613333333333328	4.278266666666667	1.0
787.723889695685	0.14363333333333328	4.278266666666667	1.0
787.723889695685	0.1415333333333333	4.188000000000001	1.0
787.723889695685	0.13249999999999995	4.042133333333333	1.0
786.897407871837	0.1294333333333333	3.9781333333333335	1.0
786.897407871837	0.1247333333333333	4.038133333333334	1.0
786.8082360307199	0.11966666666666664	3.853066666666667	1.0
786.8082360307199	0.12046666666666662	3.812533333333333	1.0
786.8114445164053	0.11699999999999998	3.8718666666666666	1.0
786.8114445164053	0.11523333333333331	3.779333333333334	1.0
786.4420962880192	0.11079999999999995	3.7689333333333335	1.0
786.4420962880192	0.1141333333333333	4.058000000000001	1.0
786.4420962880192	0.10889999999999996	4.044933333333334	1.0
786.072727895089	0.10889999999999996	4.021466666666667	1.0
786.072727895089	0.10916666666666662	4.021466666666667	1.0
786.072727895089	0.10616666666666662	4.008933333333333	1.0
786.072727895089	0.10133333333333328	4.070933333333334	1.0
784.8848419803693	0.09676666666666663	3.8913333333333338	1.0
784.8848419803693	0.09403333333333329	3.8585333333333334	1.0
784.8848419803693	0.09609999999999996	4.0	1.0
784.5234209721581	0.09046666666666663	3.952266666666667	1.0
784.5234209721581	0.09419999999999996	3.9917333333333334	1.0
784.5234208984934	0.09823333333333331	4.1864	1.0
784.5234208984934	0.0964333333333333	4.294666666666666	1.0
784.5234140375386	0.09369999999999996	4.353066666666668	1.0
784.5234140375386	0.09369999999999996	4.2824	1.0
783.8307663777861	0.09496666666666663	3.931066666666667	1.0
783.8307663777861	0.08549999999999996	3.931066666666667	1.0
783.8307663777861	0.08153333333333329	3.6557333333333326	1.0
783.704209139129	0.08066666666666662	3.4926666666666675	1.0
783.704209139129	0.08249999999999995	3.7549333333333332	1.0
783.3425836359023	0.0848333333333333	4.208266666666667	1.0
783.3425836359023	0.08146666666666662	4.247466666666668	1.0
783.342590383533	0.08366666666666663	4.2452	1.0
783.342590383533	0.08249999999999995	4.211066666666667	1.0
782.613866495094	0.0794666666666666	3.9435999999999996	1.0
782.613866495094	0.07753333333333329	4.100933333333334	1.0
782.613866495094	0.07713333333333329	4.1944	1.0
781.6192127539972	0.07713333333333329	3.9584	1.0
781.6192127539972	0.07426666666666662	3.8986666666666663	1.0
781.3489430635815	0.07376666666666663	3.8986666666666663	1.0
781.3489430635815	0.07713333333333329	4.100666666666667	1.0
781.3509147422427	0.07363333333333327	4.278533333333333	1.0
781.3509147422427	0.07226666666666662	4.356400000000001	1.0
781.3509046066122	0.07559999999999995	4.3605333333333345	1.0
781.3509046066122	0.07263333333333329	4.245866666666667	1.0
781.3509046066122	0.07099999999999994	3.9109333333333325	1.0
780.537020949938	0.07239999999999995	3.936933333333333	1.0
780.537020949938	0.06979999999999995	3.546666666666667	1.0
780.2654275567049	0.06856666666666661	3.7496000000000005	1.0
780.2654275567049	0.06423333333333327	3.7333333333333334	1.0
780.2653930794789	0.06423333333333327	3.803733333333333	1.0
780.2653930794789	0.06523333333333327	4.070133333333334	1.0
780.2653930794789	0.07066666666666661	4.070133333333334	1.0
779.8160713379672	0.06393333333333329	3.870533333333334	1.0
779.8160713379672	0.06846666666666662	3.9925333333333324	1.0
779.456968582696	0.06483333333333327	4.148266666666666	1.0
779.456968582696	0.0669666666666666	4.1612	1.0
778.286336596358	0.06526666666666661	3.8096000000000005	1.0
778.286336596358	0.06563333333333328	3.8518666666666665	1.0
778.2863416929864	0.060266666666666614	3.840133333333333	1.0
778.2863416929864	0.06376666666666661	3.846933333333333	1.0
778.2863416929864	0.06446666666666662	3.854266666666666	1.0
778.1127155756161	0.06446666666666662	3.6589333333333327	1.0
778.1127155756161	0.058299999999999935	3.6589333333333327	1.0
777.4843069685935	0.06213333333333328	3.8436	1.0
777.4843069685935	0.0602666666666666	3.8436	1.0
777.3062336302132	0.05869999999999994	3.8068	1.0
777.3062336302132	0.06249999999999995	3.933333333333333	1.0
777.0388988603779	0.06219999999999994	3.7614666666666667	1.0
777.0388988603779	0.0654666666666666	4.044533333333334	1.0
777.0388988603779	0.062433333333333285	4.1608	1.0
777.0389094837018	0.06309999999999995	4.099466666666667	1.0
777.0389094837018	0.06163333333333328	3.644666666666667	1.0
777.0389094837018	0.058199999999999946	3.6968	1.0
777.0389094837018	0.06039999999999995	3.8587999999999996	1.0
777.0389094837018	0.05996666666666661	3.7805333333333326	1.0
777.0389094837018	0.05996666666666661	3.621066666666667	1.0
777.0389094837018	0.05839999999999994	3.572400000000001	1.0
777.0389094837018	0.061099999999999946	3.572400000000001	1.0
777.0389094837018	0.060499999999999936	3.7997333333333336	1.0
775.164470298333	0.06023333333333328	3.799200000000001	1.0
775.164470298333	0.05769999999999994	3.624533333333334	1.0
774.8078678078774	0.06013333333333328	3.5820000000000003	1.0
774.8078678078774	0.05919999999999995	3.4990666666666668	1.0
774.3662626064456	0.057566666666666606	3.436933333333333	1.0
774.3662626064456	0.059466666666666605	3.6690666666666667	1.0
774.0097884454108	0.056099999999999935	3.507066666666667	1.0
774.0097884454108	0.0548666666666666	3.3638666666666666	1.0
774.0097884454108	0.0548666666666666	3.4360000000000004	1.0
774.0121172081178	0.057733333333333275	3.434533333333334	1.0
774.0121172081178	0.06136666666666661	3.6957333333333335	1.0
773.9263921290907	0.057833333333333264	3.6957333333333335	1.0
773.9263921290907	0.05803333333333328	3.914533333333334	1.0
773.2170753992057	0.0603666666666666	3.6626666666666665	1.0
773.2170753992057	0.059933333333333276	3.8766666666666665	1.0
773.2145253343258	0.055999999999999946	3.88	1.0
773.2145253343258	0.05866666666666661	3.8733333333333335	1.0
773.2145253343258	0.058266666666666606	3.6402666666666663	1.0
772.0682201177377	0.05863333333333327	3.6399999999999983	1.0
772.0682201177377	0.05886666666666661	3.6377333333333324	1.0
771.9847009862054	0.06153333333333328	3.531866666666667	1.0
771.9847009862054	0.05646666666666661	3.3657333333333335	1.0
771.9847009862054	0.06033333333333328	3.2822666666666667	1.0
771.9847009862054	0.06033333333333328	3.421733333333333	1.0
771.0097810250998	0.05753333333333327	3.4073333333333333	1.0
771.0097810250998	0.05633333333333327	3.4073333333333333	1.0
771.0097810250998	0.05629999999999994	3.3842666666666674	1.0
770.9256286235019	0.05719999999999994	3.356	1.0
770.9256286235019	0.05713333333333328	3.3724	1.0
770.9223581254307	0.055999999999999946	3.376	1.0
770.9223581254307	0.05529999999999994	3.4741333333333335	1.0
770.1327548313302	0.05876666666666661	3.7997333333333336	1.0
770.1327548313302	0.057499999999999926	3.9496	1.0
770.1326933921122	0.05736666666666661	3.9525333333333323	1.0
770.1326933921122	0.0574666666666666	3.8192	1.0
770.1326933921122	0.05933333333333328	3.4689333333333336	1.0
769.0828966260668	0.05933333333333328	3.4694666666666674	1.0
769.0828966260668	0.054366666666666605	3.3818666666666664	1.0
768.9109801353349	0.05509999999999995	3.3818666666666664	1.0
768.9109801353349	0.06043333333333327	3.3571999999999997	1.0
768.6455423318969	0.05369999999999994	3.4236000000000004	1.0
768.6455423318969	0.05449999999999993	3.393866666666667	1.0
768.6455423318969	0.055366666666666606	3.2992	1.0
768.2137475554595	0.053899999999999934	3.4474666666666676	1.0
768.2137475554595	0.055999999999999946	3.447600000000001	1.0
768.1273516180999	0.057733333333333275	3.353066666666667	1.0
768.1273516180999	0.057166666666666616	3.3582666666666667	1.0
767.7771206033002	0.05683333333333328	3.6304	1.0
767.7771206033002	0.05683333333333328	3.6371999999999995	1.0
767.7771206033002	0.05763333333333327	3.6461333333333332	1.0
767.7758730793747	0.05719999999999994	3.6461333333333332	1.0
767.7758730793747	0.05483333333333327	3.631333333333333	1.0
767.075890877093	0.052666666666666605	3.753733333333334	1.0
767.075890877093	0.05603333333333327	3.758400000000001	1.0
767.0758433186892	0.05383333333333327	3.74	1.0
767.0758433186892	0.0590666666666666	3.684	1.0
765.9484645379316	0.0560666666666666	3.312666666666667	1.0
765.9484645379316	0.05399999999999994	3.4061333333333335	1.0
765.9484645379316	0.05566666666666661	3.4305333333333334	1.0
765.9486196284709	0.049166666666666595	3.4112000000000005	1.0
765.9486196284709	0.05393333333333327	3.3264	1.0
765.9486196284709	0.05393333333333327	3.2661333333333333	1.0
765.9486196284709	0.054733333333333266	3.343066666666667	1.0
765.5166645788302	0.0567666666666666	3.343066666666667	1.0
765.5166645788302	0.055999999999999946	3.1726666666666663	1.0
765.4327750831152	0.05529999999999994	3.1414666666666666	1.0
765.4327750831152	0.053466666666666614	3.1308000000000002	1.0
765.4327750831152	0.05403333333333327	3.201866666666667	1.0
765.003896611796	0.056166666666666615	3.1624	1.0
765.003896611796	0.05339999999999994	3.1388000000000003	1.0
764.9086756392499	0.06029999999999994	3.3022666666666667	1.0
764.9086756392499	0.051266666666666606	3.4288000000000003	1.0
764.9101590438964	0.05239999999999994	3.5418666666666665	1.0
764.9101590438964	0.059099999999999944	3.6381333333333337	1.0
764.9101590438964	0.059099999999999944	3.6164	1.0
764.9081697215752	0.05563333333333328	3.6379999999999995	1.0
764.9081697215752	0.05846666666666662	3.6379999999999995	1.0
763.9629180968676	0.05766666666666661	3.4048	1.0
763.9629180968676	0.057433333333333274	3.295466666666667	1.0
763.9629180968676	0.05853333333333327	3.3565333333333336	1.0
763.9629180968676	0.05339999999999994	3.3496	1.0
763.9629315366419	0.05483333333333327	3.3619999999999997	1.0
763.9629315366419	0.0568666666666666	3.3713333333333337	1.0
763.9629315366419	0.05913333333333327	3.3666666666666667	1.0
763.9638075593367	0.0581666666666666	3.308266666666667	1.0
763.9638075593367	0.055533333333333275	3.2896000000000005	1.0
763.9638128423875	0.05703333333333328	3.2284	1.0
763.9638128423875	0.05703333333333328	3.1529333333333334	1.0
762.4139721984166	0.0574666666666666	3.0303999999999998	1.0
762.4139721984166	0.055499999999999945	3.0303999999999998	1.0
762.4139721984166	0.05459999999999994	2.8891999999999998	1.0
762.4139479623143	0.0548666666666666	2.8004000000000002	1.0
762.4139479623143	0.054333333333333275	2.793066666666667	1.0
762.1524442471638	0.04983333333333327	2.848266666666667	1.0
762.1524442471638	0.056699999999999945	2.9648	1.0
762.0684936505464	0.0561666666666666	3.0484	1.0
762.0684936505464	0.058466666666666604	3.213466666666667	1.0
762.0714978532947	0.05643333333333327	3.349333333333333	1.0
762.0714978532947	0.05863333333333327	3.2898666666666667	1.0
762.0714978532947	0.0519666666666666	3.1668	1.0
762.2506903164675	0.0519666666666666	3.1028000000000007	1.0
762.2506903164675	0.05479999999999993	3.1137333333333337	1.0
758.8207949446992	0.04983333333333327	3.1137333333333337	1.0
758.8207949446992	0.05403333333333327	3.1476	1.0
759.1634371900013	0.056566666666666605	2.899466666666666	1.0
759.1634371900013	0.05486666666666661	2.889466666666667	1.0
758.8193528243028	0.05293333333333327	3.093066666666667	1.0
758.8193528243028	0.05429999999999994	3.1172000000000004	1.0
758.8193528243028	0.05323333333333328	3.1481333333333335	1.0
759.1630254564319	0.05409999999999994	3.111466666666667	1.0
759.1630254564319	0.053366666666666604	2.9433333333333334	1.0
757.9735302899	0.05586666666666661	2.9682666666666666	1.0
757.9735302899	0.05843333333333327	2.9405333333333337	1.0
757.9727922779282	0.05843333333333327	2.928533333333333	1.0
757.9727922779282	0.055999999999999946	2.9134666666666664	1.0
757.9727922779282	0.05899999999999994	2.9134666666666664	1.0
755.5581193751967	0.056699999999999945	2.9408	1.0
755.5581193751967	0.053633333333333276	2.8885333333333336	1.0
757.7141793408632	0.05383333333333327	2.7443999999999997	1.0
757.7141793408632	0.055099999999999934	2.668666666666667	1.0
756.533417604511	0.05539999999999994	2.9721333333333333	1.0
756.533417604511	0.055933333333333266	3.199066666666667	1.0
756.1085710775782	0.05706666666666661	3.0314666666666668	1.0
756.1085710775782	0.052699999999999934	3.0988	1.0
756.1085710775782	0.05543333333333327	3.0916000000000006	1.0
756.1105951441334	0.05543333333333327	3.081466666666667	1.0
756.1105951441334	0.05373333333333328	3.0381333333333336	1.0
756.1105951441334	0.05563333333333328	3.0381333333333336	1.0
756.1105951441334	0.0567666666666666	3.0174666666666665	1.0
755.0962044032553	0.05849999999999994	3.0171999999999994	1.0
755.0962044032553	0.055933333333333266	3.0010666666666665	1.0
755.0962044032553	0.05959999999999994	2.9203999999999994	1.0
755.0113443188657	0.056333333333333284	2.8575999999999997	1.0
755.0113443188657	0.057933333333333274	2.9266666666666667	1.0
754.7564764120214	0.05549999999999994	2.8924	1.0
754.7564764120214	0.051533333333333264	3.022666666666667	1.0
753.9998063018008	0.05866666666666661	3.1606666666666667	1.0
753.9998063018008	0.057266666666666605	3.0250666666666666	1.0
753.5813175232956	0.057266666666666605	2.961066666666667	1.0
753.5813175232956	0.05323333333333327	3.0881333333333334	1.0
753.5813175232956	0.05223333333333327	3.0881333333333334	1.0
753.1656512079818	0.055999999999999946	2.8665333333333334	1.0
753.1656512079818	0.05279999999999994	3.1113333333333335	1.0
753.1657286057516	0.05803333333333328	3.124533333333334	1.0
753.1657286057516	0.05949999999999995	3.0352	1.0
752.9111900718784	0.05766666666666661	3.0201333333333333	1.0
752.9111900718784	0.054499999999999944	3.0199999999999996	1.0
752.906698979053	0.050166666666666596	3.0181333333333327	1.0
752.906698979053	0.054333333333333275	2.998666666666667	1.0
752.906698979053	0.056266666666666604	2.9969333333333332	1.0
752.906698979053	0.059066666666666615	2.7910666666666666	1.0
752.906698979053	0.05629999999999993	2.7287999999999997	1.0
751.8239962443957	0.05629999999999993	2.7788000000000004	1.0
751.8239962443957	0.053366666666666604	2.8181333333333334	1.0
750.9916350491229	0.05493333333333328	2.8181333333333334	1.0
750.9916350491229	0.05883333333333327	2.8454666666666664	1.0
750.9935075779481	0.05933333333333328	2.8177333333333334	1.0
750.9935075779481	0.05573333333333328	2.7820000000000005	1.0
750.9935075779481	0.05666666666666662	2.8313333333333333	1.0
750.3247263188424	0.058066666666666614	2.759866666666667	1.0
750.3247263188424	0.0573666666666666	2.7242666666666664	1.0
750.3247263188424	0.054166666666666606	2.8674666666666666	1.0
750.3247263188424	0.0574666666666666	2.9002666666666665	1.0
