wavelength(nm)	flourescence PMT(V)	ti_saph Power (V)	Gain (V)
820.6110454750695	0.01000000000000012	0.002493333333333315	0.4
820.6110454750695	0.01000000000000012	0.0025733333333333155	0.4
820.6121905409302	0.009966666666666785	0.0025533333333333155	0.4
820.6106901095357	0.009866666666666786	0.002633333333333315	0.4
821.0112283390692	0.01000000000000012	0.0026266666666666483	0.4
821.0112283390692	0.01000000000000012	0.0026133333333333147	0.4
821.0112296897335	0.010066666666666786	0.0026933333333333154	0.4
821.1121344024374	0.009966666666666785	0.0026933333333333154	0.4
821.1121344024374	0.009766666666666786	0.0026599999999999814	0.4
821.1137808838205	0.009966666666666785	0.002606666666666648	0.4
821.1100266649586	0.009933333333333454	0.0026199999999999817	0.4
821.9113613426144	0.00990000000000012	0.0025933333333333156	0.4
821.9113613426144	0.01000000000000012	0.002586666666666648	0.4
821.911349172287	0.009833333333333453	0.0026133333333333147	0.4
822.213756525174	0.009966666666666785	0.0026799999999999814	0.4
822.213756525174	0.009833333333333453	0.002553333333333315	0.4
822.2137548611028	0.009966666666666785	0.0025066666666666484	0.4
822.3144051829779	0.009966666666666785	0.002513333333333316	0.4
822.3131859087493	0.010033333333333455	0.002659999999999982	0.4
822.3131859087493	0.009933333333333454	0.002659999999999982	0.4
822.3132404493172	0.009966666666666785	0.002659999999999982	0.4
822.3132554304129	0.01000000000000012	0.0025399999999999824	0.4
822.3132554304129	0.009966666666666785	0.0024999999999999823	0.4
822.5095841524958	0.01000000000000012	0.002626666666666649	0.4
822.7137110241842	0.009966666666666785	0.002513333333333316	0.4
824.0229393595511	0.009966666666666785	0.0025399999999999824	0.4
824.0229393595511	0.009933333333333454	0.002573333333333315	0.4
824.022969312589	0.01000000000000012	0.002546666666666648	0.4
824.0230872831426	0.00990000000000012	0.002593333333333315	0.4
824.0230872831426	0.00990000000000012	0.0025733333333333155	0.4
824.4262449416731	0.01000000000000012	0.0026799999999999814	0.4
824.4262676162042	0.01000000000000012	0.0026799999999999814	0.4
824.4261395087069	0.009966666666666785	0.002646666666666649	0.4
824.4261395087069	0.01000000000000012	0.002599999999999982	0.4
824.8305171564944	0.009966666666666785	0.002646666666666649	0.4
824.830569643212	0.009933333333333454	0.0024933333333333157	0.4
825.2333182117262	0.00990000000000012	0.002613333333333315	0.4
825.2333182117262	0.009933333333333454	0.002619999999999982	0.4
825.639891126761	0.009966666666666785	0.0025333333333333154	0.4
825.7381626333521	0.010033333333333455	0.0026533333333333157	0.4
825.7381626333521	0.010033333333333455	0.002599999999999982	0.4
825.7381549059216	0.01000000000000012	0.002693333333333316	0.4
825.7381488671541	0.009966666666666785	0.002693333333333316	0.4
825.7381488671541	0.009866666666666786	0.002546666666666649	0.4
825.7381488671541	0.01000000000000012	0.002606666666666649	0.4
826.043294768489	0.01000000000000012	0.002679999999999982	0.4
826.0432888503401	0.010033333333333455	0.0027199999999999815	0.4
826.0432888503401	0.009866666666666786	0.002673333333333315	0.4
826.9546208394022	0.009866666666666786	0.003026666666666648	0.4
826.9545582075076	0.009866666666666786	0.003059999999999981	0.4
827.0960354648188	0.01000000000000012	0.002893333333333315	0.4
827.0960354648188	0.009933333333333454	0.003033333333333314	0.4
827.362260625822	0.009933333333333454	0.0030733333333333147	0.4
827.9697494187828	0.009966666666666785	0.004086666666666646	0.4
827.9697494187828	0.009766666666666786	0.004086666666666646	0.4
828.0732810796247	0.00980000000000012	0.004546666666666645	0.4
828.276321950482	0.00990000000000012	0.004693333333333311	0.4
828.2763572251658	0.010066666666666786	0.005053333333333312	0.4
828.2763572251658	0.009833333333333453	0.005253333333333311	0.4
828.2763345373354	0.00990000000000012	0.005246666666666644	0.4
828.68559659679	0.01000000000000012	0.006019999999999978	0.4
828.6856375466933	0.009766666666666786	0.006726666666666646	0.4
828.6856375466933	0.009833333333333453	0.006799999999999978	0.4
828.6833067849632	0.009866666666666786	0.006759999999999978	0.4
828.6859690474203	0.009866666666666786	0.006779999999999979	0.4
828.6859690474203	0.009866666666666786	0.015226666666666654	0.4
829.5029584543604	0.009766666666666786	0.015226666666666654	0.4
829.5020466267225	0.009766666666666786	0.020959999999999982	0.4
829.502013949001	0.00990000000000012	0.021293333333333317	0.4
829.502013949001	0.009833333333333453	0.02122666666666665	0.4
829.5020101454248	0.01010000000000012	0.021653333333333316	0.4
829.9112507353323	0.009966666666666785	0.035826666666666646	0.4
829.9112507353323	0.009966666666666785	0.03844666666666664	0.4
829.9097600669598	0.00990000000000012	0.04009999999999998	0.4
830.0109522733152	0.00950000000000012	0.043659999999999984	0.4
830.4208046761679	0.009366666666666787	0.05817333333333333	0.4
830.4208046761679	0.009366666666666787	0.06246666666666665	0.4
830.4208060906258	0.00990000000000012	0.0630933333333333	0.4
830.4207684743845	0.009733333333333453	0.0630933333333333	0.4
830.5258185195788	0.00980000000000012	0.0648533333333333	0.4
830.5258185195788	0.009733333333333453	0.06969333333333332	0.4
831.136379851642	0.009733333333333453	0.07819999999999996	0.4
831.0904362416792	0.009266666666666786	0.08034666666666664	0.4
831.0904362416792	0.00990000000000012	0.08772666666666666	0.4
831.7529731552911	0.009633333333333454	0.08662666666666666	0.4
831.7961835874144	0.009466666666666786	0.08567333333333331	0.4
831.9608528339095	0.009233333333333453	0.08487999999999997	0.4
831.9608528339095	0.009233333333333453	0.08444666666666666	0.4
832.1664375626988	0.009000000000000119	0.09578666666666666	0.4
832.989787528331	0.009633333333333454	0.09578666666666666	0.4
832.989787528331	0.009933333333333454	0.09571999999999999	0.4
833.2986316171018	0.009700000000000118	0.09384	0.4
833.3998568505465	0.009133333333333453	0.08799333333333333	0.4
833.3998526125123	0.009600000000000119	0.08899999999999998	0.4
833.3998526125123	0.009666666666666787	0.08944666666666666	0.4
833.3979351385309	0.00980000000000012	0.08988666666666664	0.4
833.7116002265022	0.009600000000000119	0.09354	0.4
833.7116002265022	0.009166666666666785	0.09386666666666667	0.4
833.9147867248529	0.008133333333333452	0.08679333333333332	0.4
834.3303136240467	0.00613333333333345	0.09361333333333333	0.4
834.3302048939476	0.00613333333333345	0.09519333333333334	0.4
834.3302048939476	0.00783333333333345	0.09519333333333334	0.4
834.7457816506817	0.00783333333333345	0.09487333333333335	0.4
835.3624115152494	0.0070333333333334495	0.08802	0.4
835.3624115152494	0.0016999999999998904	0.09505333333333334	0.4
835.3624805168157	0.002499999999999891	0.09511333333333333	0.4
835.3624791212917	0.002666666666666558	0.09484	0.4
835.3624791212917	0.005433333333333227	0.09271333333333333	0.4
835.4690849729492	0.005299999999999893	0.08858666666666665	0.4
835.7777553845522	0.0126999999999999	0.08463999999999999	0.4
835.7778148700131	0.02069999999999991	0.08429333333333332	0.4
835.7778148700131	0.03506666666666658	0.08732666666666665	0.4
836.6514821055133	0.03506666666666658	0.09392666666666666	0.4
837.0259932604437	0.0641666666666665	0.09423999999999999	0.4
837.0259932604437	0.08503333333333318	0.09423999999999999	0.4
837.0248577147237	0.10069999999999987	0.09526666666666665	0.4
837.2323394200697	0.11366666666666655	0.09937333333333333	0.4
837.2323954753117	0.12396666666666656	0.09469333333333331	0.4
837.2323954753117	0.1332999999999999	0.09558666666666665	0.4
837.3383331013547	0.13633333333333322	0.09693999999999998	0.4
837.337986118365	0.13933333333333323	0.09918666666666666	0.4
837.337986118365	0.14139999999999991	0.09924	0.4
837.6478798477475	0.15746666666666662	0.09426666666666665	0.4
837.7553313548021	0.1688666666666666	0.08702	0.4
838.1724160145503	0.1688666666666666	0.08937333333333332	0.4
838.1724160145503	0.2058999999999999	0.09699999999999999	0.4
838.1708305195899	0.2867333333333332	0.09699999999999999	0.4
838.171841681143	0.2904666666666665	0.09688666666666665	0.4
838.171841681143	0.29439999999999983	0.09557333333333333	0.4
837.3581866886891	0.33109999999999984	0.09179999999999999	0.4
838.9025617897603	0.42283333333333323	0.09385999999999999	0.4
839.109161019513	0.4592	0.09227999999999999	0.4
839.109161019513	0.45036666666666664	0.08608666666666666	0.4
839.1091801652268	0.45536666666666664	0.08683333333333332	0.4
839.4268277914402	0.5193666666666665	0.0928	0.4
839.4268277914402	0.5519333333333332	0.09534666666666666	0.4
839.5306288731891	0.5867333333333331	0.09969333333333331	0.4
839.5268283681169	0.5867333333333331	0.10121333333333332	0.4
839.5268450367364	0.5981666666666664	0.10121333333333332	0.4
839.5268450367364	0.5929999999999999	0.09957333333333333	0.4
840.6798575998165	0.6052666666666665	0.09584	0.4
840.7877296675987	0.6974333333333333	0.09691333333333332	0.4
840.7877296675987	0.6947333333333333	0.09566666666666665	0.4
840.892115507782	0.7750333333333334	0.10435999999999998	0.4
840.994588000487	0.7515333333333333	0.10077999999999998	0.4
840.994516630266	0.7149	0.09511333333333333	0.4
840.994516630266	0.7257999999999999	0.09491999999999999	0.4
841.2071062827348	0.7611	0.09882666666666666	0.4
841.4150252882348	0.7787333333333332	0.09913999999999999	0.4
841.4150252882348	0.7787333333333332	0.09594666666666667	0.4
841.5230324077625	0.7677666666666664	0.09594666666666667	0.4
841.5233999148091	0.7512	0.09413333333333332	0.4
841.5233999148091	0.7311333333333333	0.09094666666666663	0.4
841.6274891789473	0.7258333333333331	0.09045999999999998	0.4
841.6277038076458	0.7037333333333333	0.08715333333333332	0.4
842.1515627840975	0.7020666666666667	0.0864333333333333	0.4
842.1515627840975	0.7043666666666667	0.08611333333333332	0.4
842.1515627840975	0.7429	0.09015999999999998	0.4
842.151547489186	0.7681333333333333	0.09282666666666665	0.4
842.151547489186	0.8035	0.09591999999999999	0.4
842.5764238459661	0.8271333333333333	0.09759999999999998	0.4
842.9946773508026	0.8271333333333333	0.09089999999999998	0.4
842.9946546318461	0.7687999999999999	0.09089999999999998	0.4
842.9946546318461	0.7754666666666665	0.09163333333333332	0.4
843.1032595576572	0.7992999999999999	0.09431333333333332	0.4
843.1025659810015	0.8542	0.10067999999999998	0.4
843.4191261935952	0.8452333333333333	0.0991	0.4
843.4191261935952	0.8242666666666664	0.09688666666666665	0.4
843.4189839571171	0.8218999999999997	0.09633333333333333	0.4
844.7949475703914	0.8035666666666665	0.09438	0.4
844.7949475703914	0.8359666666666665	0.09878666666666665	0.4
844.7950880493687	0.8265666666666666	0.09798666666666665	0.4
844.7951764814877	0.8101999999999998	0.09599999999999999	0.4
844.9002308072537	0.8101999999999998	0.09097999999999999	0.4
844.9002308072537	0.7594999999999998	0.09097999999999999	0.4
845.2154372882798	0.764	0.09142	0.4
845.2140642164532	0.7181000000000001	0.08630666666666666	0.4
845.2140642164532	0.6841666666666666	0.08248666666666665	0.4
845.21593223219	0.6881333333333333	0.08299333333333332	0.4
845.32319468108	0.7266333333333331	0.08749333333333333	0.4
845.5377017002864	0.7358333333333333	0.08821999999999999	0.4
845.5377017002864	0.7285666666666667	0.08782	0.4
845.6429398108465	0.7244666666666666	0.08782666666666664	0.4
845.9588670059452	0.6762666666666666	0.0832133333333333	0.4
845.9588670059452	0.6983333333333334	0.08560666666666666	0.4
846.0639057740225	0.6983333333333334	0.08205333333333331	0.4
846.5984753380872	0.6688666666666666	0.07769999999999998	0.4
846.5984753380872	0.6235666666666666	0.07769999999999998	0.4
846.9186744542469	0.6235333333333333	0.0782733333333333	0.4
846.9769018368531	0.6257333333333334	0.07894666666666665	0.4
848.733392176614	0.6189666666666664	0.07759999999999997	0.4
848.733392176614	0.7019666666666666	0.08951999999999999	0.4
848.7344243769453	0.7159666666666666	0.09082	0.4
848.7333958679457	0.7060333333333333	0.08961333333333332	0.4
848.7333958679457	0.6934999999999999	0.08828666666666665	0.4
848.8403995606112	0.6436999999999998	0.08187999999999998	0.4
849.1114532503931	0.7209666666666665	0.09077999999999999	0.4
849.1114171356388	0.7209666666666665	0.09251333333333332	0.4
849.1114171356388	0.7294999999999999	0.09125333333333331	0.4
849.2680200614417	0.7145	0.09125333333333331	0.4
849.2669649752135	0.6953333333333334	0.08943333333333332	0.4
849.2669649752135	0.6904666666666667	0.08865333333333332	0.4
849.0856293830107	0.6691333333333332	0.08532	0.4
850.6654161221758	0.6879000000000001	0.08768666666666666	0.4
850.6654161221758	0.7029333333333333	0.09093333333333331	0.4
850.665419089669	0.7127333333333332	0.09220666666666666	0.4
852.0645703335296	0.6775666666666665	0.08787999999999999	0.4
852.0645321305313	0.6439666666666666	0.08657999999999999	0.4
852.0645321305313	0.5721999999999998	0.07780666666666664	0.4
852.4436101951892	0.5721999999999998	0.07856666666666665	0.4
852.4440308929413	0.5714999999999999	0.08259333333333331	0.4
852.4440308929413	0.6030999999999999	0.08259333333333331	0.4
852.4442409002145	0.6149666666666666	0.08369999999999998	0.4
852.6026551612226	0.5992999999999998	0.08202666666666664	0.4
852.6026551612226	0.6000999999999999	0.08274666666666665	0.4
852.9718640138481	0.6151666666666666	0.08553999999999999	0.4
852.9260348348008	0.6355666666666665	0.08845333333333331	0.4
852.9260348348008	0.6514333333333333	0.09053333333333333	0.4
852.9260348348008	0.6563	0.09087999999999999	0.4
852.9260575050341	0.6567666666666667	0.09117333333333333	0.4
852.9260262857608	0.6424666666666667	0.09010666666666665	0.4
852.9260262857608	0.5605333333333332	0.07969999999999997	0.4
853.2047863269765	0.5605333333333332	0.07615999999999998	0.4
853.2003069521955	0.5330666666666666	0.07615999999999998	0.4
853.4175079778137	0.5500666666666665	0.0787533333333333	0.4
853.4175079778137	0.5997666666666664	0.08541333333333331	0.4
854.5021819956404	0.5736333333333331	0.08407999999999997	0.4
854.5516895393038	0.5324333333333332	0.07863999999999997	0.4
854.5516895393038	0.5324666666666665	0.07805333333333331	0.4
854.7684749559605	0.5836999999999999	0.08513999999999998	0.4
854.6588307319935	0.5724666666666665	0.08352666666666664	0.4
854.828387646928	0.5702333333333331	0.08329999999999999	0.4
854.828387646928	0.5975999999999998	0.08721999999999999	0.4
854.8786266751615	0.6114999999999998	0.08943333333333331	0.4
856.0745582744754	0.6114999999999998	0.09869999999999998	0.4
856.0745582744754	0.6527333333333332	0.1021133333333333	0.4
856.0700926745606	0.6795333333333332	0.1021133333333333	0.4
856.0722057452995	0.6796666666666665	0.10228666666666665	0.4
856.2388838814597	0.6776999999999999	0.10193333333333332	0.4
856.2388838814597	0.6898	0.10347333333333332	0.4
856.3499757647035	0.6511999999999999	0.09853333333333332	0.4
856.5088883210318	0.6114999999999998	0.09305333333333332	0.4
856.6164948248633	0.5990333333333331	0.0911	0.4
856.6164948248633	0.6579666666666666	0.10026666666666664	0.4
856.6164633917086	0.6585666666666666	0.10046	0.4
856.7287161088336	0.6433333333333331	0.09911333333333332	0.4
856.7287567395581	0.6433333333333331	0.09839333333333332	0.4
856.7287567395581	0.6372333333333332	0.09707333333333333	0.4
856.6816723696303	0.6310999999999998	0.09707333333333333	0.4
856.8370157822322	0.5747333333333332	0.08922666666666666	0.4
857.0533001571472	0.5423	0.08492666666666665	0.4
857.0533001571472	0.557633333333333	0.08671999999999999	0.4
857.0532462930629	0.5595666666666664	0.08681333333333333	0.4
857.1761436037142	0.5474999999999998	0.08602666666666667	0.4
857.3819009869002	0.5420333333333331	0.08559333333333331	0.4
857.3819009869002	0.5152	0.08131999999999998	0.4
858.2056246108058	0.5116666666666666	0.08224	0.4
858.6946025527666	0.5105333333333332	0.08422666666666664	0.4
858.6946025527666	0.5105333333333332	0.08535999999999999	0.4
858.6946025527666	0.5162666666666664	0.08478666666666665	0.4
858.6946092824253	0.5112333333333332	0.08478666666666665	0.4
858.6946056129283	0.5017333333333333	0.08329999999999999	0.4
858.6946142937347	0.49029999999999985	0.08208666666666664	0.4
858.6946142937347	0.48129999999999984	0.08099999999999996	0.4
860.121965345869	0.47093333333333326	0.07946666666666664	0.4
860.1219527506873	0.4044666666666666	0.0743333333333333	0.4
860.2319152042611	0.4060999999999999	0.07473333333333332	0.4
860.2319152042611	0.3598333333333332	0.06638666666666665	0.4
860.2320209842617	0.3369333333333332	0.061899999999999976	0.4
860.2319146983806	0.3332999999999998	0.062099999999999975	0.4
860.4530898335807	0.3332999999999998	0.06626666666666665	0.4
860.4530898335807	0.35556666666666653	0.06849333333333331	0.4
860.4530803672191	0.36423333333333324	0.06849333333333331	0.4
860.5598413176933	0.35329999999999984	0.06616666666666665	0.4
860.5619118717383	0.33499999999999985	0.06270666666666665	0.4
860.5619118717383	0.3122666666666665	0.05880666666666665	0.4
860.6732503156031	0.31349999999999983	0.059306666666666646	0.4
860.8921301520215	0.32653333333333323	0.062106666666666636	0.4
860.8934313048694	0.3068333333333332	0.05914666666666664	0.4
860.8934313048694	0.32699999999999985	0.06280666666666664	0.4
861.0023598411644	0.30386666666666656	0.05853999999999998	0.4
861.2232539792811	0.2880666666666665	0.05595333333333331	0.4
861.2234117830051	0.2880666666666665	0.057773333333333315	0.4
861.2234117830051	0.29823333333333313	0.057306666666666645	0.4
862.4368489465919	0.2940666666666665	0.057306666666666645	0.4
862.4360168224375	0.3083333333333331	0.06483333333333331	0.4
862.703581562722	0.2991333333333332	0.06280666666666665	0.4
862.703581562722	0.2628333333333332	0.056073333333333315	0.4
862.6591605173694	0.25846666666666657	0.05583999999999997	0.4
864.0972410420841	0.2640666666666665	0.06063999999999998	0.4
864.210776471202	0.2635999999999999	0.06173999999999998	0.4
864.210776471202	0.2795999999999999	0.06534666666666665	0.4
864.2095853720937	0.27319999999999994	0.06428666666666664	0.4
864.2104219300243	0.2634999999999999	0.06219999999999998	0.4
864.430442424651	0.2634999999999999	0.05962666666666663	0.4
864.430442424651	0.24789999999999993	0.05799999999999997	0.4
864.4304471769245	0.2411333333333332	0.05799999999999997	0.4
864.6522312664699	0.2340333333333332	0.05671999999999997	0.4
864.6533550096702	0.2210333333333332	0.05296666666666665	0.4
864.6533550096702	0.21273333333333327	0.050739999999999987	0.4
864.7624026614968	0.2125666666666666	0.05053999999999999	0.4
864.6533568211602	0.2344333333333332	0.05585999999999997	0.4
864.7625131160889	0.23163333333333322	0.0561333333333333	0.4
864.7625131160889	0.22306666666666652	0.054159999999999965	0.4
864.8756834665444	0.20763333333333328	0.04966666666666665	0.4
865.2068724208254	0.19716666666666663	0.04794666666666666	0.4
865.2068478041806	0.19716666666666663	0.04639333333333332	0.4
865.2068478041806	0.18789999999999996	0.04646666666666665	0.4
866.3630786851053	0.18613333333333326	0.04646666666666665	0.4
866.543412740971	0.19869999999999996	0.05175999999999999	0.4
866.5451539125123	0.18663333333333326	0.04964666666666666	0.4
866.5451539125123	0.19296666666666662	0.05055999999999999	0.4
867.9467541578701	0.14699999999999994	0.04459999999999999	0.4
867.9485639168496	0.14146666666666657	0.04255999999999999	0.4
867.9459061663847	0.14473333333333324	0.04391333333333332	0.4
867.9459061663847	0.15069999999999992	0.047186666666666655	0.4
868.1998962101261	0.14176666666666657	0.043506666666666645	0.4
868.1998909181013	0.1397999999999999	0.042239999999999986	0.4
868.3947082867356	0.14909999999999993	0.047379999999999985	0.4
868.3947082867356	0.14909999999999993	0.04757999999999999	0.4
868.5058417282216	0.14889999999999992	0.046013333333333316	0.4
868.5063224944671	0.14433333333333323	0.046013333333333316	0.4
868.5063224944671	0.14013333333333325	0.04357333333333332	0.4
868.5063224944671	0.13666666666666658	0.04118666666666665	0.4
868.7326141125702	0.13053333333333322	0.040393333333333316	0.4
868.7325560765644	0.13843333333333324	0.043639999999999984	0.4
868.7325560765644	0.13203333333333322	0.04156666666666665	0.4
868.8722566883441	0.12856666666666658	0.04045333333333332	0.4
869.0682772081788	0.12139999999999988	0.03913333333333332	0.4
869.1013644849132	0.11816666666666653	0.03783333333333331	0.4
869.1013644849132	0.08213333333333321	0.027813333333333315	0.4
868.3948359005437	0.14513333333333325	0.04541333333333332	0.4
868.3948359005437	0.15179999999999993	0.04831999999999999	0.4
868.2840896145897	0.14643333333333325	0.04574666666666666	0.4
868.1987785212978	0.14036666666666656	0.04274666666666665	0.4
868.1988906450767	0.1405666666666666	0.04252666666666665	0.4
868.1988906450767	0.1524999999999999	0.04730666666666666	0.4
868.0004029502633	0.1621666666666666	0.04951999999999999	0.4
867.9467244657066	0.1621666666666666	0.04846666666666665	0.4
867.9467244657066	0.15776666666666658	0.04846666666666665	0.4
867.9466795014048	0.1445666666666666	0.044173333333333314	0.4
867.9466795014048	0.14386666666666656	0.04340666666666664	0.4
866.5234027285351	0.18733333333333327	0.04967999999999999	0.4
866.5234027285351	0.19376666666666661	0.05082666666666665	0.4
866.4357000121673	0.18699999999999994	0.04964666666666666	0.4
866.3825890853454	0.19586666666666663	0.051439999999999986	0.4
865.2067735412663	0.20159999999999995	0.049379999999999986	0.4
865.2067735412663	0.2076999999999999	0.050279999999999984	0.4
865.0766225572796	0.2191333333333332	0.05291999999999998	0.4
864.763387771125	0.24353333333333319	0.057666666666666644	0.4
864.6533824405922	0.24353333333333319	0.05782666666666664	0.4
864.6533824405922	0.24413333333333326	0.05782666666666664	0.4
864.6534424556037	0.21543333333333323	0.05134666666666665	0.4
864.4300885423992	0.2185333333333332	0.051506666666666645	0.4
864.4300885423992	0.2349999999999999	0.05624666666666664	0.4
864.430144875602	0.24916666666666656	0.060359999999999976	0.4
864.4301476582207	0.25406666666666655	0.06048666666666665	0.4
864.20945850413	0.26196666666666657	0.06160666666666664	0.4
864.20945850413	0.2702666666666666	0.06281333333333332	0.4
864.2107824333771	0.27579999999999993	0.06416666666666665	0.4
863.9867942973311	0.25299999999999995	0.060019999999999976	0.4
862.6603828737196	0.25299999999999995	0.0562733333333333	0.4
862.6603828737196	0.23529999999999987	0.055859999999999986	0.4
862.545352053071	0.26046666666666657	0.055859999999999986	0.4
862.4371825290305	0.25859999999999983	0.05513999999999998	0.4
862.4371825290305	0.2828333333333332	0.05994666666666665	0.4
862.4371825290305	0.2932666666666665	0.06078666666666665	0.4
861.1110122885257	0.2803333333333332	0.05528666666666664	0.4
861.1099864029605	0.26536666666666653	0.05201333333333332	0.4
861.1099864029605	0.27266666666666656	0.05257999999999998	0.4
861.0018529651506	0.2938999999999999	0.05668666666666664	0.4
860.8917342900862	0.30243333333333317	0.058333333333333307	0.4
860.6704626958987	0.32593333333333324	0.06163999999999998	0.4
860.6704626958987	0.3471333333333332	0.06534666666666665	0.4
860.561816888606	0.3471333333333332	0.06219999999999999	0.4
860.4531308118537	0.3264333333333332	0.06564666666666664	0.4
860.4522136236731	0.3526999999999998	0.06564666666666664	0.4
860.4522136236731	0.3632666666666665	0.06794666666666664	0.4
860.231040945516	0.33926666666666655	0.06354666666666664	0.4
860.119898828264	0.3193333333333332	0.05990666666666665	0.4
860.1222684826156	0.33939999999999987	0.06272666666666665	0.4
860.1222684826156	0.3906999999999999	0.07208666666666663	0.4
860.1179095133297	0.4249	0.07695999999999997	0.4
860.1646550896069	0.41806666666666664	0.07568666666666662	0.4
858.6945715211115	0.4577666666666666	0.07807999999999997	0.4
858.6945715211115	0.4718666666666666	0.07971333333333332	0.4
858.6945153084157	0.4718666666666666	0.08084666666666664	0.4
858.6944955461792	0.4811666666666666	0.08131999999999998	0.4
858.6945675006218	0.48626666666666657	0.08131999999999998	0.4
858.6945675006218	0.4830333333333332	0.08089999999999997	0.4
858.4270273623808	0.47046666666666653	0.07859999999999999	0.4
857.313996820037	0.49583333333333324	0.08100666666666664	0.4
857.1769992013478	0.5411999999999999	0.0852533333333333	0.4
857.1769992013478	0.5762666666666665	0.09069999999999998	0.4
857.0530814863209	0.5669999999999998	0.08885999999999998	0.4
856.9429774629948	0.5475666666666666	0.08423999999999998	0.4
856.7911086703288	0.6427333333333333	0.09927333333333332	0.4
856.7911086703288	0.6048666666666666	0.09361333333333333	0.4
856.8368664808659	0.6048666666666666	0.08827333333333331	0.4
856.8368496716954	0.5661999999999997	0.08767333333333333	0.4
856.8368481181199	0.5621333333333332	0.08767333333333333	0.4
856.8368481181199	0.5655999999999998	0.08811333333333332	0.4
856.6166482792609	0.5741999999999998	0.08895999999999998	0.4
856.5085691323036	0.6726999999999999	0.10096	0.4
856.5085685598539	0.5651666666666664	0.08667333333333332	0.4
856.5085685598539	0.5720999999999999	0.08711999999999999	0.4
856.3982991880798	0.5889999999999997	0.08905333333333332	0.4
856.2899839470947	0.6260666666666665	0.09464666666666666	0.4
856.290891162327	0.6277999999999999	0.09521333333333333	0.4
856.290891162327	0.6258	0.095	0.4
856.1299079001327	0.6258	0.09449333333333333	0.4
856.176817551594	0.6297333333333333	0.09901999999999998	0.4
856.176817551594	0.6625999999999999	0.09901999999999998	0.4
854.9354436876072	0.6210333333333331	0.09310666666666666	0.4
854.7681185299743	0.5404999999999999	0.07905333333333331	0.4
854.7681208490053	0.5324666666666665	0.07734666666666665	0.4
854.7681208490053	0.5338666666666666	0.07748666666666665	0.4
854.6095965314419	0.5324999999999999	0.07735999999999997	0.4
854.6096276840661	0.5391333333333331	0.07833333333333331	0.4
854.6094823510067	0.5230666666666666	0.07618666666666665	0.4
854.6094823510067	0.5180666666666666	0.0748333333333333	0.4
854.28404745223	0.5531999999999998	0.08035999999999997	0.4
853.3088512563195	0.5531999999999998	0.08632666666666665	0.4
853.3053694100324	0.6102333333333333	0.08698666666666666	0.4
853.3053694100324	0.6173	0.08698666666666666	0.4
853.2016300079118	0.5539333333333332	0.07841333333333331	0.4
852.9258620472859	0.5613333333333332	0.07946666666666663	0.4
852.9258255921638	0.6080666666666665	0.08511999999999999	0.4
852.9258255921638	0.6401333333333332	0.08894666666666666	0.4
852.9258255921638	0.6389333333333331	0.08907999999999999	0.4
852.7680179112022	0.6299666666666665	0.08798666666666664	0.4
852.7680010076285	0.6365666666666666	0.08872666666666665	0.4
852.7680010076285	0.6215666666666666	0.08579999999999999	0.4
852.4454149248953	0.6216999999999999	0.08530666666666666	0.4
852.3383970745215	0.6216999999999999	0.08323333333333331	0.4
852.3385048570414	0.6108666666666667	0.07342666666666664	0.4
852.3385048570414	0.5408666666666666	0.07342666666666664	0.4
852.3385441679944	0.5361333333333332	0.0724933333333333	0.4
852.0143701845061	0.5597666666666665	0.07599999999999998	0.4
852.0143701845061	0.6028666666666666	0.08085999999999999	0.4
850.7698675238688	0.6234000000000001	0.08045333333333332	0.4
850.7707764194661	0.6220333333333333	0.07985999999999997	0.4
849.5880149173953	0.6352	0.08168666666666664	0.4
849.5880149173953	0.6944	0.08845999999999998	0.4
849.2692549645586	0.6991333333333334	0.08919333333333332	0.4
849.1159602411389	0.7123666666666666	0.09055333333333332	0.4
849.1113819279993	0.7268666666666665	0.0923	0.4
849.1113819279993	0.7268666666666665	0.08939333333333332	0.4
848.8395253417231	0.7101999999999999	0.08939333333333332	0.4
848.8383887945197	0.6293666666666666	0.08049999999999997	0.4
848.8383887945197	0.6342999999999999	0.08141333333333331	0.4
848.8383887945197	0.6947	0.08836666666666666	0.4
848.5182901952575	0.7000666666666667	0.08851333333333332	0.4
847.0242351103898	0.6614333333333332	0.08350666666666666	0.4
847.0242351103898	0.6845666666666667	0.08610666666666665	0.4
847.0229621813222	0.6637333333333333	0.08315333333333332	0.4
846.7032623565033	0.7169666666666666	0.08834666666666666	0.4
845.7491723806249	0.6932666666666666	0.08476666666666664	0.4
845.7491723806249	0.6932666666666666	0.08311999999999997	0.4
845.7491641696754	0.6775999999999999	0.08058666666666664	0.4
845.6428140102621	0.6573333333333333	0.08058666666666664	0.4
845.6428140102621	0.6931333333333334	0.08436666666666665	0.4
845.3211695128434	0.7322333333333332	0.08756666666666665	0.4
845.3209457823045	0.7735333333333333	0.09250666666666667	0.4
845.219084173539	0.7151333333333334	0.08608666666666664	0.4
845.219084173539	0.7021666666666668	0.08548666666666666	0.4
845.2606812096295	0.7092999999999999	0.08601999999999999	0.4
844.8990972495242	0.7490999999999999	0.08887333333333333	0.4
844.7939983262521	0.7500666666666667	0.08933333333333332	0.4
844.7939983262521	0.8011666666666666	0.09469999999999999	0.4
844.7941012752012	0.8118333333333332	0.09538666666666666	0.4
843.5193185462182	0.8118333333333332	0.08584666666666665	0.4
843.5193185462182	0.7306333333333334	0.08637999999999998	0.4
843.5218368751881	0.7230666666666667	0.08637999999999998	0.4
843.2021099965093	0.7618666666666666	0.09004	0.4
843.0982357036319	0.7777999999999999	0.09110666666666666	0.4
843.0982357036319	0.8227333333333333	0.09660666666666665	0.4
842.9943988099062	0.8285999999999999	0.09746666666666665	0.4
842.5732877669941	0.8115999999999999	0.09568666666666666	0.4
842.5732877669941	0.8339999999999997	0.09875999999999999	0.4
842.2578779671197	0.8590000000000001	0.10219999999999999	0.4
842.2562949302627	0.874933333333333	0.10470666666666664	0.4
841.7276214632643	0.7955666666666665	0.09563333333333332	0.4
841.7276214632643	0.7955666666666665	0.10125999999999998	0.4
841.7318464551195	0.826333333333333	0.10305999999999997	0.4
841.4162494556907	0.8446333333333332	0.10305999999999997	0.4
841.4162494556907	0.8382333333333333	0.10232666666666665	0.4
841.4162494556907	0.84	0.10374666666666665	0.4
841.4153218258346	0.8573	0.1065733333333333	0.4
841.3110081457903	0.8132999999999998	0.10200666666666665	0.4
841.3110081457903	0.7274333333333332	0.09278666666666666	0.4
840.9956838574241	0.6729333333333333	0.08851999999999999	0.4
840.9953684579767	0.6843666666666666	0.09059333333333332	0.4
840.9958644613307	0.7077999999999999	0.09398666666666666	0.4
840.9958644613307	0.7042999999999999	0.09345999999999997	0.4
840.9956173376887	0.7042999999999999	0.09764666666666665	0.4
840.8918496286059	0.7315333333333333	0.10153999999999999	0.4
839.8415204755572	0.7511333333333332	0.10153999999999999	0.4
839.8415204755572	0.6884666666666667	0.09644	0.4
839.5279002143145	0.5804666666666666	0.09672666666666666	0.4
839.5280922803954	0.5811999999999999	0.09827999999999999	0.4
839.5280922803954	0.5824333333333332	0.09863333333333332	0.4
839.5279222047022	0.5887666666666664	0.09962666666666666	0.4
839.1098863158968	0.5463999999999999	0.09597333333333333	0.4
839.1090156070958	0.4795666666666666	0.09051333333333333	0.4
839.1090156070958	0.46646666666666664	0.08886666666666665	0.4
839.1093227612354	0.45906666666666657	0.08956666666666666	0.4
838.6926148619117	0.45906666666666657	0.09257999999999998	0.4
838.3211077818411	0.4051999999999999	0.08769333333333332	0.4
838.3211077818411	0.28846666666666654	0.08769333333333332	0.4
838.1716380701233	0.2825999999999999	0.08906	0.4
837.7554967066098	0.27493333333333325	0.09519999999999999	0.4
837.7554967066098	0.21676666666666658	0.09231333333333332	0.4
837.7550357139439	0.18593333333333326	0.09022666666666664	0.4
837.6488512958921	0.17603333333333326	0.09075333333333332	0.4
837.3370572492497	0.15283333333333327	0.09554	0.4
837.3370572492497	0.14136666666666656	0.09883333333333331	0.4
837.231860847821	0.14063333333333322	0.10028666666666666	0.4
837.2313705256104	0.1384999999999999	0.09794666666666667	0.4
837.2313705256104	0.1384999999999999	0.09820666666666665	0.4
836.8174489929896	0.13506666666666656	0.09820666666666665	0.4
836.8157532507787	0.1000333333333332	0.09339333333333334	0.4
836.8158269449268	0.08706666666666651	0.09415333333333334	0.4
836.8158269449268	0.0783666666666665	0.09612	0.4
836.0892455875676	0.050733333333333214	0.08993999999999999	0.4
836.0897960595414	0.03686666666666659	0.08575333333333333	0.4
835.468933343502	0.02803333333333325	0.08580666666666666	0.4
835.468933343502	0.0026333333333332246	0.08794666666666666	0.4
835.4656028855047	0.002766666666666558	0.09151333333333334	0.4
835.4671062296838	0.00486666666666656	0.09223999999999999	0.4
835.4671062296838	0.0024333333333332245	0.09348666666666666	0.4
835.2607571455186	0.0024333333333332245	0.09369999999999999	0.4
834.7441529086751	0.001366666666666779	0.08975999999999999	0.4
833.9468134909193	0.007733333333333451	0.08975999999999999	0.4
833.9468134909193	0.00783333333333345	0.09143999999999998	0.4
833.9174250370122	0.008900000000000118	0.09313333333333333	0.4
833.9130985461672	0.009633333333333454	0.08698	0.4
833.9130985461672	0.009533333333333453	0.08713333333333333	0.4
833.3991467808091	0.009600000000000119	0.09172666666666665	0.4
833.4000028737481	0.009533333333333453	0.09069999999999998	0.4
833.3990403604299	0.009733333333333453	0.09066666666666666	0.4
833.3990403604299	0.009933333333333454	0.08938666666666666	0.4
833.3991887550544	0.009933333333333454	0.08869999999999999	0.4
832.9922028888026	0.00980000000000012	0.09317333333333333	0.4
832.9922028888026	0.009666666666666787	0.09317333333333333	0.4
832.9922028888026	0.009466666666666786	0.09416	0.4
831.7548518897978	0.009566666666666786	0.09458	0.4
831.7525488342028	0.009933333333333454	0.08606	0.4
831.6518510369684	0.010033333333333455	0.08639999999999999	0.4
831.6518510369684	0.009733333333333453	0.08737999999999999	0.4
831.3407611223794	0.009633333333333454	0.0901	0.4
831.138598464719	0.009233333333333453	0.08297999999999998	0.4
831.138598464719	0.00950000000000012	0.07724666666666664	0.4
830.5243889533933	0.01000000000000012	0.07372666666666662	0.4
830.5242925870311	0.01000000000000012	0.07317999999999998	0.4
830.4219475390307	0.009933333333333454	0.06938666666666664	0.4
830.4219475390307	0.00980000000000012	0.06938666666666664	0.4
830.0113770529626	0.008966666666666786	0.04717999999999998	0.4
830.0103094280585	0.009566666666666786	0.04180666666666665	0.4
829.9080079551732	0.009666666666666787	0.03982666666666664	0.4
829.9080079551732	0.00990000000000012	0.039146666666666656	0.4
829.5020507695828	0.00990000000000012	0.02311999999999998	0.4
829.5020571343074	0.009966666666666785	0.021019999999999987	0.4
829.3978504141799	0.009866666666666786	0.020906666666666653	0.4
829.3978504141799	0.009866666666666786	0.02031333333333332	0.4
829.3979529508526	0.009866666666666786	0.015279999999999985	0.4
828.6832008274146	0.00940000000000012	0.007013333333333313	0.4
828.6863136184162	0.009966666666666785	0.007013333333333313	0.4
828.6863136184162	0.01000000000000012	0.006706666666666645	0.4
828.2773287520222	0.00990000000000012	0.006619999999999978	0.4
828.2763564536708	0.009866666666666786	0.005473333333333311	0.4
828.2763686040208	0.009933333333333454	0.005399999999999978	0.4
828.2763686040208	0.009866666666666786	0.005293333333333311	0.4
828.2764059926366	0.009766666666666786	0.00523333333333331	0.4
828.0732679938443	0.009666666666666787	0.004579999999999978	0.4
828.0732679938443	0.009866666666666786	0.004479999999999978	0.4
828.0732679938443	0.009966666666666785	0.0030533333333333146	0.4
827.3622545681485	0.009966666666666785	0.0030599999999999807	0.4
826.9561897578562	0.009933333333333454	0.0029666666666666483	0.4
826.9564552244084	0.009966666666666785	0.0029666666666666483	0.4
826.9564552244084	0.010033333333333455	0.002799999999999981	0.4
826.1428561436678	0.01000000000000012	0.002813333333333315	0.4
826.0441811450399	0.009866666666666786	0.002659999999999982	0.4
826.0441793747951	0.009933333333333454	0.002619999999999982	0.4
826.0441793747951	0.01000000000000012	0.0026466666666666483	0.4
826.0442287494838	0.009866666666666786	0.0026199999999999817	0.4
826.0442455536112	0.009866666666666786	0.002759999999999981	0.4
825.7382010260952	0.009833333333333453	0.002673333333333314	0.4
825.7382010260952	0.009833333333333453	0.0025399999999999824	0.4
825.7381883384802	0.009700000000000118	0.0025666666666666485	0.4
825.6387682675118	0.009966666666666785	0.0025666666666666485	0.4
824.8269140711392	0.009833333333333453	0.002673333333333315	0.4
824.8269140711392	0.009933333333333454	0.0024733333333333152	0.4
824.8305113089882	0.009966666666666785	0.0024133333333333155	0.4
824.8298680914988	0.009833333333333453	0.002633333333333315	0.4
824.8298680914988	0.009866666666666786	0.002659999999999982	0.4
824.727922112211	0.009866666666666786	0.0027133333333333154	0.4
824.4008101041198	0.009966666666666785	0.0024866666666666488	0.4
823.5588492523027	0.009933333333333454	0.0025799999999999825	0.4
823.5588492523027	0.009966666666666785	0.0025999999999999817	0.4
824.0229723231633	0.009966666666666785	0.0027999999999999813	0.4
824.022949469721	0.009866666666666786	0.002639999999999981	0.4
822.5766947936914	0.009966666666666785	0.002639999999999981	0.4
822.5766947936914	0.009933333333333454	0.002526666666666649	0.4
822.5767237076378	0.01000000000000012	0.0025666666666666485	0.4
822.3132587590496	0.009733333333333453	0.002593333333333315	0.4
822.3133230744833	0.009866666666666786	0.002573333333333315	0.4
822.3133230744833	0.009966666666666785	0.0025933333333333156	0.4
822.3132405729555	0.009933333333333454	0.0024599999999999813	0.4
822.3132496666785	0.009966666666666785	0.002646666666666649	0.4
822.3132496666785	0.00990000000000012	0.002539999999999981	0.4
822.213762132884	0.00990000000000012	0.0024999999999999823	0.4
822.2137469545859	0.009833333333333453	0.002566666666666649	0.4
821.9105837614967	0.010033333333333455	0.002566666666666649	0.4
821.9105837614967	0.009833333333333453	0.002546666666666649	0.4
821.1107991114939	0.01000000000000012	0.0024866666666666488	0.4
821.1111195966166	0.010033333333333455	0.002566666666666649	0.4
821.1526910059055	0.00990000000000012	0.0024733333333333157	0.4
821.1526910059055	0.009933333333333454	0.002553333333333315	0.4
821.01122992742	0.01000000000000012	0.0025933333333333156	0.4
820.6121900169564	0.009833333333333453	0.002519999999999982	0.4
820.6110638533786	0.009966666666666785	0.0025333333333333154	0.4
820.6110638533786	0.009866666666666786	0.0025066666666666484	0.4
