wavelength(nm)	flourescence PMT(V)	ti_saph Power (V)	Gain (V)
750.3243800504057	0.05786666666666661	2.953333333333333	1.0
750.3243800504057	0.05986666666666661	2.9770666666666665	1.0
750.6578248599196	0.0560666666666666	2.9598666666666666	1.0
750.6578248599196	0.05739999999999994	2.7769333333333335	1.0
750.6578248599196	0.058733333333333276	2.8367999999999998	1.0
751.0761423445701	0.06069999999999994	2.8020000000000005	1.0
751.0761423445701	0.055933333333333266	2.8056	1.0
751.0761423445701	0.055933333333333266	2.8433333333333333	1.0
751.0761423445701	0.05843333333333327	2.9627999999999997	1.0
751.0761423445701	0.05939999999999995	2.9627999999999997	1.0
752.0760325401662	0.0579666666666666	3.038266666666667	1.0
752.0760325401662	0.05903333333333328	3.055333333333333	1.0
752.9116614732541	0.056699999999999945	3.0108	1.0
752.9116614732541	0.05803333333333328	2.825333333333334	1.0
752.9116614732541	0.0591666666666666	2.7982666666666667	1.0
752.9100188777453	0.057499999999999926	2.7805333333333335	1.0
752.9100188777453	0.05789999999999993	2.7864000000000004	1.0
752.9117132868088	0.05513333333333327	2.783866666666667	1.0
752.9117132868088	0.06193333333333328	3.0676	1.0
753.1667597486723	0.059233333333333284	3.2466666666666666	1.0
753.1667597486723	0.059233333333333284	3.2500000000000004	1.0
753.1667597486723	0.0586666666666666	3.1668000000000003	1.0
753.5833215823658	0.05449999999999993	3.1668000000000003	1.0
753.5833215823658	0.06023333333333328	3.0073333333333334	1.0
753.9226261050613	0.058099999999999936	2.96	1.0
753.9226261050613	0.0617666666666666	3.017066666666666	1.0
753.9226261050613	0.054333333333333275	3.0194666666666663	1.0
753.9226261050613	0.05819999999999993	3.076133333333333	1.0
753.9226261050613	0.055233333333333266	3.1120000000000005	1.0
755.0133591728616	0.05916666666666661	3.157066666666667	1.0
755.0133591728616	0.06106666666666661	3.1719999999999997	1.0
755.0133591728616	0.0626666666666666	3.099066666666667	1.0
755.0133591728616	0.0626666666666666	2.895866666666666	1.0
755.0133591728616	0.0574666666666666	2.891333333333333	1.0
755.8537294626033	0.059299999999999936	2.891333333333333	1.0
755.8537294626033	0.057433333333333274	2.879066666666666	1.0
755.8537294626033	0.05733333333333327	2.8702666666666663	1.0
756.1127816024391	0.057566666666666606	3.0009333333333332	1.0
756.1127816024391	0.055933333333333266	3.265333333333334	1.0
756.5339238107332	0.06203333333333328	3.211466666666667	1.0
756.5339238107332	0.056099999999999935	3.1404	1.0
756.5339238107332	0.056399999999999936	3.0411999999999995	1.0
756.5302905807305	0.0602666666666666	3.0306666666666664	1.0
756.5302905807305	0.05999999999999994	3.063466666666667	1.0
757.6374080275665	0.05973333333333327	2.9728	1.0
757.6374080275665	0.059066666666666615	2.942	1.0
757.6374080275665	0.059066666666666615	3.0485333333333333	1.0
757.8923380183872	0.055366666666666606	3.113066666666666	1.0
757.8923380183872	0.05339999999999994	3.113066666666666	1.0
757.8923380183872	0.05969999999999994	3.1139999999999994	1.0
757.8923380183872	0.056266666666666604	3.2212000000000005	1.0
757.8923380183872	0.05766666666666661	3.1973333333333334	1.0
758.7381419479359	0.06159999999999994	3.0656000000000003	1.0
758.7381419479359	0.05856666666666661	2.9158666666666666	1.0
758.8586665893071	0.05753333333333328	2.869066666666666	1.0
758.8586665893071	0.06143333333333327	2.9092	1.0
758.8586665893071	0.0574666666666666	2.974	1.0
759.0813936023883	0.05903333333333328	3.1052000000000004	1.0
759.0813936023883	0.0624666666666666	3.2704000000000004	1.0
759.0834667319866	0.0624666666666666	3.307066666666667	1.0
759.0834667319866	0.06516666666666661	3.1921333333333335	1.0
759.0834667319866	0.06049999999999995	3.1921333333333335	1.0
759.4286141087837	0.06173333333333327	3.087866666666667	1.0
759.4286141087837	0.05566666666666661	3.2002666666666664	1.0
761.8961435311253	0.05933333333333328	3.208266666666667	1.0
761.8961435311253	0.059899999999999946	3.275866666666667	1.0
761.8961435311253	0.06156666666666662	3.1634666666666664	1.0
762.0727715893266	0.05793333333333328	3.1003999999999996	1.0
762.0727715893266	0.057499999999999926	3.4608	1.0
762.0720432522364	0.05723333333333327	3.48	1.0
762.0720432522364	0.05723333333333328	3.3161333333333336	1.0
762.1535938830117	0.06099999999999994	3.384666666666667	1.0
762.1535938830117	0.06099999999999994	3.369466666666667	1.0
762.1535938830117	0.05776666666666661	2.9470666666666663	1.0
762.4151616499274	0.05706666666666661	2.944666666666667	1.0
762.4151616499274	0.05939999999999993	2.944666666666667	1.0
763.6193582291959	0.058199999999999946	3.130666666666667	1.0
763.6193582291959	0.06053333333333327	3.287733333333334	1.0
763.6193582291959	0.05893333333333328	3.364133333333333	1.0
763.9616588597311	0.06029999999999994	3.345466666666667	1.0
763.9616588597311	0.061466666666666614	3.354	1.0
763.9649033709023	0.05889999999999993	3.4106666666666667	1.0
763.9649033709023	0.05696666666666661	3.438	1.0
763.9649033709023	0.059933333333333276	3.462266666666667	1.0
763.9657736090209	0.05636666666666661	3.479733333333334	1.0
763.9657736090209	0.05843333333333327	3.48	1.0
763.9657736090209	0.05843333333333327	3.4969333333333332	1.0
763.9657736090209	0.057266666666666605	3.450533333333333	1.0
763.9657736090209	0.06029999999999995	3.450533333333333	1.0
764.9073583990695	0.05783333333333328	3.3421333333333334	1.0
764.9073583990695	0.06003333333333328	3.3264	1.0
764.8260243868627	0.060666666666666605	3.3312	1.0
764.8260243868627	0.059099999999999944	3.2978666666666667	1.0
764.8260243868627	0.05699999999999993	3.2320000000000007	1.0
764.907571480699	0.05529999999999994	3.4864	1.0
764.907571480699	0.05793333333333328	3.6725333333333334	1.0
765.006038107507	0.05753333333333328	3.6732	1.0
765.006038107507	0.06016666666666661	3.432533333333333	1.0
765.006038107507	0.05923333333333327	3.3629333333333338	1.0
765.0042686838044	0.05923333333333327	3.3706666666666667	1.0
765.0042686838044	0.05613333333333327	3.3484	1.0
765.5187580038242	0.05769999999999994	3.3484	1.0
765.5187580038242	0.061133333333333276	3.369333333333333	1.0
765.5187580038242	0.05413333333333327	3.3651999999999997	1.0
765.5209783135373	0.05603333333333327	3.3485333333333336	1.0
765.5209783135373	0.05569999999999993	3.365333333333333	1.0
765.8681895561025	0.05976666666666661	3.256266666666667	1.0
765.8681895561025	0.06449999999999995	3.3594666666666666	1.0
765.8681895561025	0.05856666666666659	3.344133333333333	1.0
765.8681895561025	0.05769999999999994	3.6070666666666664	1.0
765.8681895561025	0.059933333333333276	3.521066666666667	1.0
766.994537750422	0.057733333333333275	3.256266666666667	1.0
766.994537750422	0.057733333333333275	3.1180000000000003	1.0
766.994537750422	0.05853333333333327	3.109866666666667	1.0
766.9954321030759	0.05733333333333327	3.109866666666667	1.0
766.9954321030759	0.05896666666666661	3.1488000000000005	1.0
767.0778695302511	0.057899999999999945	3.217866666666667	1.0
767.0778695302511	0.05736666666666661	3.572666666666667	1.0
767.0778695302511	0.06406666666666662	3.632666666666666	1.0
767.7791711723229	0.06083333333333329	3.768533333333334	1.0
767.7791711723229	0.06089999999999994	3.8000000000000007	1.0
767.7807805992416	0.06006666666666661	3.8005333333333335	1.0
767.7807805992416	0.05796666666666661	3.7997333333333336	1.0
767.7807805992416	0.05966666666666662	3.4404000000000003	1.0
767.7807805992416	0.05976666666666662	3.3726666666666665	1.0
767.7807805992416	0.05976666666666662	3.3474666666666666	1.0
768.2130435665041	0.06323333333333328	3.3064000000000004	1.0
768.2130435665041	0.060666666666666605	3.3064000000000004	1.0
768.2130435665041	0.058433333333333275	3.4233333333333333	1.0
768.2130435665041	0.05899999999999994	3.4632	1.0
768.2130435665041	0.059799999999999943	3.48	1.0
768.2130435665041	0.06083333333333329	3.412666666666667	1.0
768.2130435665041	0.0580666666666666	3.453066666666667	1.0
768.2130435665041	0.060633333333333275	3.6113333333333335	1.0
768.2130435665041	0.05976666666666659	3.6258666666666675	1.0
768.2130435665041	0.05869999999999994	3.2725333333333335	1.0
768.2130435665041	0.06313333333333328	3.2516000000000003	1.0
768.2130435665041	0.06033333333333328	3.464133333333334	1.0
770.2216011252841	0.06033333333333328	3.577733333333334	1.0
770.2216011252841	0.059099999999999944	3.605600000000001	1.0
770.2216011252841	0.06176666666666661	3.605600000000001	1.0
770.9225874246347	0.058099999999999936	3.4197333333333337	1.0
770.9225874246347	0.05763333333333327	3.5344000000000007	1.0
770.9269012392828	0.058099999999999936	3.6417333333333324	1.0
770.9269012392828	0.05889999999999993	3.640533333333333	1.0
770.9269012392828	0.05776666666666661	3.6559999999999993	1.0
770.9269012392828	0.05969999999999994	3.6282666666666668	1.0
770.9269012392828	0.05926666666666661	3.610666666666666	1.0
771.7187312455496	0.06009999999999993	3.358	1.0
771.7187312455496	0.060666666666666605	3.4885333333333333	1.0
771.7187312455496	0.05766666666666661	3.560533333333334	1.0
771.7174065855198	0.05766666666666661	3.532666666666667	1.0
771.7174065855198	0.060233333333333264	3.365866666666667	1.0
771.9819473873563	0.05969999999999994	3.365866666666667	1.0
771.9819473873563	0.0603666666666666	3.363733333333333	1.0
771.9819473873563	0.05849999999999994	3.3402666666666674	1.0
773.2194027821246	0.06053333333333327	3.3533333333333335	1.0
773.2194027821246	0.05943333333333328	3.4070666666666667	1.0
773.2191470584185	0.060466666666666606	3.3990666666666667	1.0
773.2191470584185	0.06086666666666661	3.3496	1.0
773.9291895157958	0.06103333333333327	3.466266666666667	1.0
773.9291895157958	0.06243333333333328	3.4798666666666667	1.0
773.9291895157958	0.06589999999999994	3.4576000000000007	1.0
774.0139309604564	0.06286666666666661	3.5467999999999997	1.0
774.0139309604564	0.06233333333333327	3.6570666666666662	1.0
774.0139309604564	0.06233333333333327	3.7473333333333336	1.0
774.0139309604564	0.0644666666666666	3.7473333333333336	1.0
774.0139309604564	0.05779999999999994	3.7541333333333333	1.0
774.7256576370052	0.06153333333333328	3.6964	1.0
774.7256576370052	0.06029999999999994	3.6632000000000002	1.0
774.9976034862301	0.059799999999999943	3.8786666666666663	1.0
774.9976034862301	0.06173333333333327	3.6613333333333338	1.0
774.9976034862301	0.0669666666666666	3.479733333333334	1.0
775.168837531741	0.062266666666666616	3.4792	1.0
775.168837531741	0.06283333333333328	3.4352000000000005	1.0
775.1655164318503	0.06336666666666661	3.422266666666667	1.0
775.1655164318503	0.06799999999999995	3.512266666666667	1.0
775.1655164318503	0.06329999999999994	3.727066666666667	1.0
775.1655164318503	0.06729999999999994	3.5316	1.0
775.1655164318503	0.06729999999999994	3.48	1.0
776.6854523469013	0.06396666666666662	3.7261333333333337	1.0
776.6854523469013	0.06386666666666661	3.7261333333333337	1.0
776.6854523469013	0.06353333333333328	3.8755999999999995	1.0
777.0409816107388	0.06709999999999994	3.6247999999999996	1.0
777.0409816107388	0.06293333333333327	3.6180000000000003	1.0
777.0400475359681	0.06793333333333328	3.639733333333332	1.0
777.0400475359681	0.06373333333333328	3.6096000000000004	1.0
777.0400475359681	0.06276666666666661	3.726933333333333	1.0
777.3995988703745	0.06623333333333328	3.8604	1.0
777.3995988703745	0.06839999999999993	3.8484	1.0
777.3995988703745	0.06829999999999994	4.040266666666668	1.0
777.3995988703745	0.06759999999999994	3.9103999999999997	1.0
777.3995988703745	0.06759999999999994	3.7429333333333337	1.0
778.2034673141014	0.06296666666666662	3.756933333333334	1.0
778.2034673141014	0.06833333333333329	3.756933333333334	1.0
778.2915760966567	0.06999999999999994	3.6846666666666668	1.0
778.2915760966567	0.06739999999999995	3.5181333333333336	1.0
779.4566481752549	0.07073333333333329	3.785466666666667	1.0
779.4566481752549	0.07133333333333328	3.8087999999999997	1.0
779.4566481752549	0.06783333333333327	3.773066666666667	1.0
779.7290638237188	0.07136666666666662	3.8094666666666672	1.0
779.7290638237188	0.07349999999999995	3.8157333333333336	1.0
780.1797215122899	0.06653333333333328	3.7576000000000005	1.0
780.1797215122899	0.06986666666666662	3.6398666666666655	1.0
780.1797215122899	0.07459999999999994	3.638399999999999	1.0
780.264982331836	0.07459999999999994	3.7076	1.0
780.264982331836	0.06579999999999994	3.9571999999999994	1.0
780.5393926323211	0.07229999999999995	3.9571999999999994	1.0
780.5393926323211	0.07296666666666662	4.0156	1.0
780.5393926323211	0.07866666666666662	4.118133333333334	1.0
780.5393926323211	0.07246666666666662	3.8316	1.0
780.5393926323211	0.08119999999999995	4.163733333333333	1.0
781.3520575378601	0.07303333333333327	3.9379999999999997	1.0
781.3520575378601	0.07906666666666662	3.8797333333333337	1.0
781.3520575378601	0.07226666666666662	3.8804	1.0
781.3520281561049	0.08019999999999995	3.8918666666666666	1.0
781.3520281561049	0.07056666666666661	3.673866666666666	1.0
781.3520281561049	0.08096666666666662	3.862933333333333	1.0
781.3520281561049	0.08096666666666662	3.6580000000000004	1.0
781.3520281561049	0.08129999999999996	3.669866666666666	1.0
782.8921991717856	0.08423333333333329	3.669866666666666	1.0
782.8921991717856	0.08409999999999995	3.7988000000000004	1.0
783.3437840027973	0.07823333333333328	3.7568000000000006	1.0
783.3437840027973	0.08619999999999996	3.727333333333334	1.0
783.3437840027973	0.0822333333333333	3.7342666666666666	1.0
783.3437817336383	0.08166666666666662	3.7530666666666677	1.0
783.3437817336383	0.08316666666666661	3.682133333333333	1.0
783.620095150837	0.08439999999999995	3.6399999999999992	1.0
783.620095150837	0.08699999999999995	3.7330666666666668	1.0
783.620095150837	0.09536666666666661	4.231466666666666	1.0
784.4373823793771	0.09543333333333329	4.193866666666666	1.0
784.4373823793771	0.09543333333333329	4.359066666666667	1.0
784.5255463808452	0.09876666666666661	4.261333333333334	1.0
784.5255463808452	0.10093333333333329	4.261333333333334	1.0
784.5255463808452	0.09469999999999995	3.964666666666666	1.0
784.5254969604867	0.09569999999999995	3.9548	1.0
784.5254969604867	0.09386666666666663	3.937466666666666	1.0
784.8010330130674	0.09303333333333329	3.779866666666667	1.0
784.8010330130674	0.0983333333333333	3.7989333333333337	1.0
784.8010330130674	0.10916666666666665	4.056666666666667	1.0
785.7101038351333	0.10909999999999996	4.200533333333333	1.0
785.7101038351333	0.1137333333333333	4.162000000000001	1.0
785.7101038351333	0.11259999999999995	3.88	1.0
785.7101038351333	0.11259999999999995	3.878533333333333	1.0
786.4472448964761	0.11113333333333329	4.013599999999999	1.0
786.4472448964761	0.11529999999999996	4.045866666666668	1.0
786.4472448964761	0.12393333333333328	4.045866666666668	1.0
786.6246784737525	0.11963333333333329	4.0616	1.0
786.6246784737525	0.12353333333333329	4.012933333333334	1.0
786.9012785378671	0.12143333333333328	3.9548	1.0
786.9012785378671	0.12723333333333328	4.078533333333334	1.0
786.9012785378671	0.12966666666666662	4.280533333333333	1.0
787.6361308169398	0.13696666666666663	4.260533333333334	1.0
787.6361308169398	0.14669999999999994	4.358000000000001	1.0
787.727864283654	0.14926666666666663	4.410933333333334	1.0
787.727864283654	0.14563333333333328	4.1368	1.0
787.727864283654	0.14563333333333328	4.088533333333333	1.0
787.72597471759	0.14469999999999994	4.052266666666667	1.0
787.72597471759	0.13923333333333326	4.052266666666667	1.0
788.0084858228895	0.1409333333333333	4.161066666666666	1.0
788.0084858228895	0.15549999999999992	4.202666666666666	1.0
788.0084858228895	0.14676666666666663	3.8192	1.0
788.0084858228895	0.19709999999999994	3.9059999999999997	1.0
788.0084858228895	0.19666666666666657	3.879466666666666	1.0
788.0084858228895	0.20266666666666655	3.977066666666666	1.0
788.0084858228895	0.21983333333333324	4.119866666666667	1.0
788.0084858228895	0.22816666666666655	4.114	1.0
788.0084858228895	0.2360999999999999	4.017866666666667	1.0
788.0084858228895	0.2398666666666666	4.004	1.0
790.1238935182427	0.2398666666666666	4.182666666666666	1.0
790.1238935182427	0.25299999999999995	4.428400000000002	1.0
790.1238935182427	0.25949999999999995	4.428400000000002	1.0
790.8641688417656	0.2977999999999999	4.277466666666666	1.0
790.8641688417656	0.31189999999999996	4.414133333333334	1.0
790.9555125292391	0.3195333333333333	4.443200000000001	1.0
790.9555125292391	0.2991	4.126533333333334	1.0
790.9555125292391	0.30133333333333323	4.110266666666666	1.0
791.2341022475536	0.3078666666666666	3.880933333333333	1.0
791.2341022475536	0.30163333333333325	3.7985333333333338	1.0
791.2330127201915	0.3010666666666666	3.767200000000001	1.0
791.2330127201915	0.29729999999999995	3.771733333333333	1.0
791.2330127201915	0.45786666666666653	4.4304000000000014	1.0
792.3520519758056	0.45786666666666653	4.437466666666667	1.0
792.3520519758056	0.44309999999999994	4.181866666666666	1.0
792.3520519758056	0.4821333333333333	4.181866666666666	1.0
792.3520519758056	0.5083333333333333	4.12	1.0
793.1888739634874	0.5294666666666665	4.1204	1.0
793.1888739634874	0.5591333333333333	4.04	1.0
793.1888739634874	0.5478	4.050666666666666	1.0
793.1888739634874	0.5836999999999999	4.147600000000001	1.0
793.1888739634874	0.5872333333333333	4.277733333333333	1.0
793.6527473199677	0.6674666666666665	4.346000000000001	1.0
793.6527473199677	0.6963333333333332	4.2741333333333325	1.0
793.6527473199677	0.7951666666666667	4.578666666666667	1.0
794.1177964159591	0.7951666666666667	4.4446666666666665	1.0
794.1177964159591	0.7973	4.398933333333335	1.0
794.3045796268457	0.8395666666666666	4.398933333333335	1.0
794.3045796268457	0.8915333333333334	4.601733333333334	1.0
794.3045796268457	0.9025333333333333	4.638133333333333	1.0
794.4913085724494	0.8746999999999999	4.373600000000001	1.0
794.4913085724494	0.8428999999999999	4.11	1.0
794.4912114989497	0.8169999999999998	3.9909333333333334	1.0
794.4912114989497	0.8322333333333333	4.047733333333334	1.0
794.4912114989497	1.3835666666666664	4.328533333333334	1.0
793.1872783110109	0.5716666666666667	4.120933333333333	1.0
793.1872783110109	0.5483666666666667	4.117466666666667	1.0
793.1872783110109	0.5401333333333334	4.114266666666667	1.0
792.9058586409246	0.5195666666666666	4.140666666666667	1.0
792.9058586409246	0.5114666666666666	4.198533333333333	1.0
792.5296768406405	0.48016666666666663	4.117733333333334	1.0
792.5296768406405	0.4449666666666666	4.1681333333333335	1.0
792.5296768406405	0.4449666666666666	4.496666666666667	1.0
792.3485250257309	0.4603666666666666	4.400533333333334	1.0
792.3485250257309	0.4276333333333332	4.400533333333334	1.0
791.2350641833003	0.3069333333333333	3.852266666666666	1.0
791.2350641833003	0.3007333333333333	3.7996000000000003	1.0
790.9565744038299	0.29713333333333325	3.7992	1.0
790.9565744038299	0.2938666666666666	4.102666666666667	1.0
790.9565744038299	0.3097333333333333	4.171466666666666	1.0
790.864430680412	0.3078999999999999	4.1958666666666655	1.0
790.864430680412	0.31573333333333325	4.453600000000002	1.0
790.1239059705958	0.28316666666666657	4.334666666666667	1.0
790.1239059705958	0.26456666666666656	4.444533333333334	1.0
790.1239059705958	0.26456666666666656	4.2165333333333335	1.0
790.0329079292645	0.24656666666666657	4.2165333333333335	1.0
790.0329079292645	0.23036666666666658	4.036266666666667	1.0
790.0329079292645	0.2376999999999999	4.066666666666666	1.0
790.0329079292645	0.22006666666666655	4.276933333333333	1.0
789.2027106374494	0.22959999999999994	4.280133333333334	1.0
789.2027106374494	0.2152666666666666	4.2661333333333324	1.0
789.2027106374494	0.19163333333333324	4.071466666666667	1.0
788.0948572486417	0.16703333333333328	4.043333333333333	1.0
788.0948572486417	0.1474666666666666	3.882133333333333	1.0
788.0084887913042	0.14979999999999993	3.932133333333333	1.0
788.0084887913042	0.14959999999999993	4.0658666666666665	1.0
788.0084887913042	0.14959999999999993	3.994533333333334	1.0
787.6372135930598	0.15039999999999992	4.229466666666667	1.0
787.6372135930598	0.14673333333333327	4.229466666666667	1.0
787.6375649460604	0.15149999999999994	4.388933333333334	1.0
787.6375649460604	0.14643333333333328	4.512533333333334	1.0
786.9010762500641	0.14123333333333327	4.510133333333333	1.0
786.9010762500641	0.1316333333333333	4.266533333333333	1.0
786.9010762500641	0.13019999999999995	4.364	1.0
786.723690626497	0.1323333333333333	4.277333333333333	1.0
786.723690626497	0.1262333333333333	4.2748	1.0
786.7263725478562	0.12376666666666662	4.2030666666666665	1.0
786.7263725478562	0.12596666666666662	4.2556	1.0
786.4482011500605	0.12426666666666662	4.324266666666667	1.0
786.4482011500605	0.12426666666666662	4.3288	1.0
786.4482011500605	0.12859999999999996	4.143066666666667	1.0
786.4482011500605	0.11769999999999996	4.143066666666667	1.0
786.4482011500605	0.11666666666666661	3.8798666666666666	1.0
785.7135908907477	0.1148333333333333	3.9012	1.0
785.7135908907477	0.11596666666666659	4.413733333333335	1.0
785.7135908907477	0.10923333333333328	4.204933333333333	1.0
784.804379936545	0.10236666666666662	4.023333333333333	1.0
784.804379936545	0.09636666666666663	4.0141333333333336	1.0
784.5265419101455	0.09879999999999997	3.932266666666666	1.0
784.5265419101455	0.09946666666666662	4.212533333333334	1.0
784.5265419101455	0.10033333333333329	4.280133333333334	1.0
784.5265533947103	0.10033333333333329	4.2672	1.0
784.5265533947103	0.09816666666666662	4.126266666666667	1.0
784.0702100521472	0.10179999999999996	4.126266666666667	1.0
784.0702100521472	0.09573333333333328	4.078	1.0
783.623613628095	0.09249999999999997	3.9164000000000003	1.0
783.623613628095	0.08839999999999996	3.9255999999999993	1.0
783.623613628095	0.08956666666666663	3.7985333333333338	1.0
783.6226466172695	0.08579999999999996	3.803200000000001	1.0
783.6226466172695	0.08566666666666663	4.099466666666666	1.0
783.3442560611737	0.08923333333333329	4.113466666666667	1.0
783.3442560611737	0.08676666666666662	4.1092	1.0
783.3442560611737	0.08723333333333327	4.0742666666666665	1.0
782.8903310594945	0.08723333333333327	3.8798666666666666	1.0
782.8903310594945	0.08059999999999995	4.022	1.0
782.5288615957886	0.08366666666666663	4.022	1.0
782.5288615957886	0.08266666666666662	4.017733333333334	1.0
781.4386922030454	0.07243333333333328	3.9042666666666666	1.0
781.4386922030454	0.07566666666666662	3.850533333333334	1.0
781.4386922030454	0.07963333333333329	4.249866666666667	1.0
781.3502049424615	0.07519999999999995	4.268533333333333	1.0
781.3502049424615	0.07846666666666662	4.1464	1.0
781.2655598667541	0.07373333333333329	3.944133333333333	1.0
781.2655598667541	0.07609999999999995	4.202	1.0
781.2655598667541	0.07656666666666662	4.018400000000001	1.0
781.2655598667541	0.07699999999999996	3.8029333333333337	1.0
781.2655598667541	0.07699999999999996	3.7869333333333333	1.0
780.1789752751092	0.07623333333333328	3.7869333333333333	1.0
780.1789752751092	0.07449999999999996	3.78	1.0
780.1789777442939	0.07316666666666663	4.028133333333334	1.0
780.1789777442939	0.07236666666666662	4.031733333333333	1.0
780.1789777442939	0.06616666666666661	3.826133333333334	1.0
779.4581886465137	0.0688666666666666	3.876133333333333	1.0
779.4581886465137	0.06579999999999994	4.0018666666666665	1.0
778.2887350095003	0.07303333333333327	4.046266666666667	1.0
778.2887350095003	0.06633333333333329	3.7251999999999996	1.0
778.2887350095003	0.0688666666666666	3.7101333333333333	1.0
778.2060268642913	0.06549999999999995	3.9966666666666666	1.0
778.2060268642913	0.06549999999999995	4.143066666666667	1.0
778.2040909168499	0.06646666666666662	3.975333333333333	1.0
778.2040909168499	0.0627333333333333	3.975333333333333	1.0
777.4840209968322	0.06633333333333327	3.877466666666667	1.0
777.4840209968322	0.06733333333333329	4.2444	1.0
777.4840209968322	0.06889999999999995	4.202666666666667	1.0
777.3989282642233	0.06523333333333328	3.6355999999999993	1.0
777.3989282642233	0.06276666666666661	3.4997333333333334	1.0
777.041114551423	0.0644666666666666	3.7066666666666666	1.0
777.041114551423	0.06713333333333328	3.5874666666666672	1.0
777.041114551423	0.06826666666666661	3.8941333333333326	1.0
777.0392878463475	0.06526666666666661	3.9804000000000004	1.0
777.0392878463475	0.06526666666666661	3.9352	1.0
776.5945900327262	0.06383333333333328	3.793066666666667	1.0
776.5945900327262	0.0636666666666666	3.793066666666667	1.0
776.5945900327262	0.0655666666666666	3.88	1.0
776.5945900327262	0.061133333333333276	3.8363999999999994	1.0
776.5945900327262	0.06423333333333327	3.8064000000000004	1.0
776.5945900327262	0.05883333333333328	3.6438666666666664	1.0
776.5945900327262	0.060466666666666606	3.64	1.0
775.0820050100426	0.06316666666666661	3.6587999999999994	1.0
775.0820050100426	0.06136666666666661	3.8245333333333336	1.0
775.0820050100426	0.0672333333333333	3.8863999999999996	1.0
774.9967128644838	0.062299999999999946	3.791733333333333	1.0
774.9967128644838	0.059899999999999946	3.458	1.0
774.3698433674662	0.059899999999999946	4.112800000000001	1.0
774.3698433674662	0.062466666666666615	3.7381333333333333	1.0
774.0150281335885	0.06663333333333328	3.7381333333333333	1.0
774.0150281335885	0.06033333333333327	3.436266666666667	1.0
774.0150281335885	0.06323333333333328	3.377466666666667	1.0
773.9270223789108	0.06399999999999995	3.9477333333333333	1.0
773.9270223789108	0.06096666666666661	4.001733333333333	1.0
773.9293423593359	0.06223333333333328	3.959999999999999	1.0
773.9293423593359	0.06286666666666661	3.7716	1.0
773.9293423593359	0.06336666666666661	3.776133333333334	1.0
773.1350744501744	0.06289999999999994	3.7128000000000005	1.0
773.1350744501744	0.06299999999999994	3.561466666666667	1.0
772.0706261985923	0.06299999999999994	3.4808	1.0
772.0706261985923	0.06193333333333328	3.4917333333333334	1.0
771.9821863931408	0.06289999999999994	3.4917333333333334	1.0
771.9821863931408	0.0605666666666666	3.7820000000000005	1.0
771.9821863931408	0.05613333333333327	3.7998666666666674	1.0
771.7148101271049	0.05966666666666662	3.6725333333333334	1.0
771.7148101271049	0.06219999999999994	3.5467999999999997	1.0
771.2780798830817	0.06093333333333328	3.767200000000001	1.0
771.2780798830817	0.06603333333333328	3.8010666666666664	1.0
770.9260908185997	0.06219999999999994	3.8786666666666663	1.0
770.9260908185997	0.06269999999999994	3.3668000000000005	1.0
770.9260908185997	0.05629999999999994	3.1824	1.0
770.8402403178894	0.05629999999999994	3.4742666666666664	1.0
770.8402403178894	0.06199999999999994	3.7182666666666666	1.0
770.1390558437299	0.06156666666666662	3.7182666666666666	1.0
770.1390558437299	0.05913333333333327	3.743333333333333	1.0
770.1390558437299	0.0605666666666666	3.5748	1.0
770.1763041117284	0.05933333333333328	3.7935999999999996	1.0
770.1763041117284	0.05889999999999993	3.5542666666666665	1.0
770.1763041117284	0.06133333333333328	3.536800000000001	1.0
770.1763041117284	0.055633333333333264	3.4089333333333336	1.0
768.9969495026169	0.06289999999999994	3.3619999999999997	1.0
768.9969495026169	0.061099999999999946	3.4161333333333332	1.0
768.9969495026169	0.06333333333333328	3.4652	1.0
768.6487975584625	0.060633333333333275	3.606933333333333	1.0
768.6487975584625	0.060633333333333275	3.7981333333333334	1.0
768.2131604406478	0.05899999999999994	3.7981333333333334	1.0
768.2131604406478	0.05886666666666661	3.8170666666666664	1.0
768.2131604406478	0.061399999999999934	3.7890666666666677	1.0
768.2131405929275	0.05919999999999995	3.8102666666666662	1.0
768.2131405929275	0.058599999999999944	3.652399999999999	1.0
767.7811861849598	0.05913333333333327	3.6364	1.0
767.7811861849598	0.06309999999999993	3.5798666666666668	1.0
767.7811998632988	0.06483333333333327	3.560533333333334	1.0
767.7811998632988	0.06213333333333328	3.5508000000000006	1.0
767.7811998632988	0.0603666666666666	3.6970666666666663	1.0
766.9979423804548	0.06099999999999994	3.5156	1.0
766.9979423804548	0.06099999999999994	3.5332000000000003	1.0
766.9988208125384	0.06119999999999995	3.5680000000000005	1.0
766.9988208125384	0.060899999999999954	3.5680000000000005	1.0
766.9988208125384	0.06286666666666661	3.585466666666667	1.0
765.8686538784607	0.06149999999999994	3.5760000000000005	1.0
765.8686538784607	0.06029999999999994	3.3934666666666664	1.0
765.868435510776	0.05849999999999994	3.3634666666666666	1.0
765.868435510776	0.055999999999999946	3.368666666666667	1.0
765.5187659976369	0.058299999999999935	3.3709333333333333	1.0
765.5187659976369	0.05676666666666661	3.2512	1.0
765.5187659976369	0.06153333333333328	3.1534666666666666	1.0
765.5190152849834	0.0590666666666666	3.139466666666667	1.0
765.5190152849834	0.059466666666666605	3.123466666666667	1.0
765.0008888420339	0.059466666666666605	3.0762666666666663	1.0
765.0008888420339	0.06403333333333328	3.0573333333333337	1.0
765.0008888420339	0.0605666666666666	3.0573333333333337	1.0
764.9067366697525	0.057833333333333264	3.0792	1.0
764.9067366697525	0.058066666666666614	3.572133333333333	1.0
764.9067366697525	0.0579666666666666	3.678533333333333	1.0
764.9067366697525	0.060466666666666606	3.7048	1.0
764.8260857424157	0.059033333333333264	3.5980000000000003	1.0
764.8260857424157	0.05999999999999994	3.4093333333333335	1.0
764.8260857424157	0.05859999999999994	3.4056	1.0
764.8257278863339	0.05853333333333327	3.3798666666666666	1.0
764.8257278863339	0.05699999999999993	3.390133333333333	1.0
763.966080589546	0.059466666666666605	3.3472	1.0
763.966080589546	0.059466666666666605	3.297333333333334	1.0
763.966080589546	0.061833333333333275	3.2793333333333337	1.0
763.966080589546	0.06156666666666662	3.2793333333333337	1.0
763.966080589546	0.06469999999999994	3.2335999999999996	1.0
763.9660969984368	0.058266666666666606	3.1749333333333336	1.0
763.9660969984368	0.05849999999999994	3.155866666666667	1.0
763.96501321946	0.05589999999999994	3.1084000000000005	1.0
763.96501321946	0.055366666666666606	3.084	1.0
763.96501321946	0.05983333333333327	3.0673333333333335	1.0
763.6199248811337	0.05986666666666661	3.4761333333333337	1.0
763.6199248811337	0.05766666666666661	3.3768000000000002	1.0
762.4178664929894	0.06039999999999995	3.2456	1.0
762.4178664929894	0.059066666666666615	3.2553333333333336	1.0
762.4178664929894	0.059066666666666615	3.2468	1.0
762.1547435627944	0.06253333333333327	3.108666666666667	1.0
762.1547435627944	0.0559666666666666	3.108666666666667	1.0
762.0747647674522	0.058733333333333276	3.130933333333333	1.0
762.0747647674522	0.06239999999999995	3.128	1.0
762.0747647674522	0.06289999999999994	3.0889333333333338	1.0
762.0747647674522	0.05619999999999994	3.041066666666667	1.0
762.0747647674522	0.06553333333333328	3.0173333333333336	1.0
762.2521863370885	0.059799999999999943	3.1043999999999996	1.0
762.2521863370885	0.05883333333333327	3.2034666666666665	1.0
759.081482186955	0.06259999999999995	3.0937333333333332	1.0
759.081482186955	0.0617666666666666	3.037333333333333	1.0
759.081482186955	0.06149999999999994	3.009333333333333	1.0
759.0818644672947	0.06149999999999994	2.996133333333333	1.0
759.0818644672947	0.06023333333333328	2.9732000000000003	1.0
758.7389778871423	0.06119999999999995	2.9732000000000003	1.0
758.7389778871423	0.06079999999999994	2.9592	1.0
757.9758777086537	0.060199999999999934	3.1393333333333335	1.0
757.9758777086537	0.06139999999999995	3.1184000000000003	1.0
757.9758777086537	0.0580666666666666	3.0134666666666665	1.0
757.9758777086537	0.057899999999999945	2.889866666666666	1.0
757.9758777086537	0.05966666666666662	2.8644	1.0
757.8932380759713	0.05979999999999994	2.8596	1.0
757.8932380759713	0.056899999999999944	2.8618666666666663	1.0
757.8932380759713	0.058699999999999926	2.833333333333334	1.0
756.8733678401485	0.05986666666666661	2.8653333333333335	1.0
756.8733678401485	0.05823333333333328	2.869733333333333	1.0
756.5330323030743	0.05823333333333328	3.0168	1.0
756.5330323030743	0.060833333333333274	3.1213333333333337	1.0
756.5333244113602	0.060199999999999934	3.1213333333333337	1.0
756.5333244113602	0.0593666666666666	3.0544000000000002	1.0
756.5333244113602	0.05729999999999995	2.905333333333333	1.0
756.1942103038016	0.058599999999999944	2.9312	1.0
756.1942103038016	0.057499999999999926	2.9250666666666665	1.0
755.8587970225209	0.057899999999999945	2.916933333333333	1.0
755.8587970225209	0.059466666666666605	2.8819999999999997	1.0
755.8587970225209	0.059966666666666606	2.8873333333333333	1.0
755.8543869454543	0.05896666666666661	2.900266666666667	1.0
755.8543869454543	0.05703333333333328	2.9874666666666667	1.0
755.0947131074394	0.05899999999999994	2.9536	1.0
755.0947131074394	0.059466666666666605	2.8104	1.0
754.7606820547842	0.059466666666666605	2.8202666666666674	1.0
754.7606820547842	0.06099999999999994	2.8736	1.0
754.7606820547842	0.06253333333333327	2.8736	1.0
753.9251397048968	0.06169999999999995	3.0908	1.0
753.9251397048968	0.057933333333333274	2.96	1.0
753.5837047299407	0.06053333333333327	2.9289333333333336	1.0
753.5837047299407	0.05973333333333327	2.9986666666666664	1.0
753.5837047299407	0.05973333333333327	2.8366666666666664	1.0
753.1673459661857	0.06259999999999995	2.8691999999999998	1.0
753.1673459661857	0.05803333333333328	2.9084	1.0
752.9098628900624	0.058899999999999945	2.8710666666666667	1.0
752.9098628900624	0.058266666666666606	2.8562666666666665	1.0
752.9098681136319	0.058266666666666606	2.8444000000000003	1.0
752.9098681136319	0.058933333333333275	2.8270666666666666	1.0
752.9098681136319	0.05766666666666661	2.8270666666666666	1.0
752.1592368080294	0.057733333333333275	2.9942666666666664	1.0
752.1592368080294	0.05959999999999994	3.16	1.0
752.0786260224145	0.05723333333333327	2.93	1.0
752.0786260224145	0.06239999999999995	2.858	1.0
752.0786260224145	0.05999999999999994	2.8069333333333333	1.0
752.0786260224145	0.05969999999999994	2.8830666666666662	1.0
752.0786260224145	0.05849999999999994	2.9122666666666666	1.0
750.9922481124694	0.060199999999999934	2.954533333333334	1.0
750.9922481124694	0.05986666666666661	2.8786666666666663	1.0
750.9922481124694	0.059299999999999936	2.9022666666666663	1.0
750.3244545582384	0.059299999999999936	2.8556000000000004	1.0
750.3244545582384	0.06206666666666661	2.7686666666666664	1.0
