wavelength(nm)	flourescence PMT(V)	ti_saph Power (V)	Gain (V)
750.1719937104148	0.45626666666666654	4.013333333333334	1.0
750.1719937104148	0.4641333333333333	4.2048000000000005	1.0
750.1719937104148	0.47789999999999994	4.386133333333333	1.0
750.1723470747189	0.48589999999999994	4.340266666666668	1.0
750.1723470747189	0.47059999999999985	4.317466666666667	1.0
750.1723470747189	0.47013333333333324	4.190933333333334	1.0
750.5045304728352	0.47013333333333324	4.044133333333334	1.0
750.5045304728352	0.4525999999999999	4.044133333333334	1.0
750.5045304728352	0.43946666666666656	4.0254666666666665	1.0
750.5045304728352	0.4549666666666666	4.139600000000001	1.0
750.5045304728352	0.43873333333333336	3.9586666666666663	1.0
750.5045304728352	0.4444333333333333	3.8805333333333327	1.0
751.2543132479215	0.43073333333333325	3.88	1.0
751.2543132479215	0.46859999999999996	4.213466666666666	1.0
751.2543132479215	0.47133333333333327	4.427066666666668	1.0
751.2525663210323	0.47436666666666666	4.437066666666667	1.0
751.2525663210323	0.4871666666666666	4.342133333333334	1.0
751.2525663210323	0.4871666666666666	4.399733333333334	1.0
752.0429970784891	0.4697666666666666	4.4261333333333335	1.0
752.0429970784891	0.47936666666666666	4.4261333333333335	1.0
752.0429970784891	0.4426999999999999	4.0625333333333336	1.0
752.0429970784891	0.4925	4.619066666666667	1.0
752.0429970784891	0.48839999999999995	4.726666666666667	1.0
752.0429970784891	0.48783333333333323	4.713733333333334	1.0
753.0936955337	0.47013333333333324	4.3976	1.0
753.0936955337	0.4342666666666666	4.083333333333333	1.0
753.0936955337	0.43429999999999996	4.055066666666667	1.0
753.4288226477312	0.41646666666666654	4.075200000000001	1.0
753.4288226477312	0.41646666666666654	4.267066666666667	1.0
753.4288226477312	0.4576666666666666	4.319466666666667	1.0
753.765494262557	0.4571999999999999	4.319466666666667	1.0
753.765494262557	0.43883333333333324	4.1236	1.0
753.765494262557	0.3987666666666666	3.8161333333333336	1.0
754.1826005219215	0.4321999999999999	4.106933333333333	1.0
754.1826005219215	0.4702333333333332	4.469333333333334	1.0
754.1826005219215	0.45646666666666663	4.518666666666666	1.0
754.9418205694727	0.43136666666666656	4.195066666666667	1.0
754.9418205694727	0.41063333333333324	3.8882666666666665	1.0
754.9418205694727	0.40136666666666654	3.8474666666666666	1.0
755.1091776815049	0.4089999999999999	3.990133333333333	1.0
755.1091776815049	0.4089999999999999	4.461866666666666	1.0
755.1091776815049	0.4453666666666665	4.461866666666666	1.0
756.0370058346246	0.4576333333333332	4.597733333333333	1.0
756.0370058346246	0.43879999999999997	4.2268	1.0
756.0370058346246	0.4142333333333333	3.991333333333333	1.0
756.119106757478	0.41089999999999993	3.9862666666666664	1.0
756.119106757478	0.40946666666666665	4.0822666666666665	1.0
756.119106757478	0.4292333333333333	4.2564	1.0
756.3764232330992	0.4567	4.645066666666667	1.0
756.3764232330992	0.4626666666666666	4.7216000000000005	1.0
756.3764232330992	0.4154666666666666	4.137333333333333	1.0
756.7979527426829	0.4015999999999999	4.107466666666667	1.0
756.7979527426829	0.4015999999999999	4.12	1.0
756.7979527426829	0.40786666666666654	4.12	1.0
756.7979094916202	0.4079	4.117333333333334	1.0
756.7979094916202	0.4152666666666666	4.188533333333333	1.0
756.7979094916202	0.43809999999999993	4.3232	1.0
757.135832178452	0.43623333333333336	4.352000000000001	1.0
757.135832178452	0.43776666666666664	4.3580000000000005	1.0
757.135832178452	0.43689999999999996	4.360933333333334	1.0
757.135832178452	0.4396	4.360800000000001	1.0
757.135832178452	0.4194666666666666	4.2034666666666665	1.0
757.135832178452	0.3923666666666666	4.0732	1.0
757.135832178452	0.3923666666666666	4.021733333333334	1.0
757.135832178452	0.40609999999999996	3.9928	1.0
757.135832178452	0.3920333333333333	3.9928	1.0
757.5570940660921	0.4200666666666666	4.2272	1.0
757.5570940660921	0.4161999999999999	4.3232	1.0
757.5570940660921	0.4141999999999999	4.339733333333333	1.0
757.5602941498074	0.4472666666666665	4.486933333333333	1.0
757.5602941498074	0.43866666666666654	4.5676000000000005	1.0
757.5602941498074	0.45296666666666663	4.774133333333333	1.0
758.2373338545036	0.4642999999999999	4.821199999999999	1.0
758.2373338545036	0.4671999999999999	4.915466666666666	1.0
758.2373338545036	0.46546666666666664	4.941333333333334	1.0
762.078915895795	0.46546666666666664	4.9952	1.0
762.078915895795	0.4547666666666667	5.0256	1.0
762.0788836306997	0.45373333333333327	5.0256	1.0
762.0788836306997	0.47359999999999997	5.08	1.0
762.0788836306997	0.43379999999999996	4.594133333333334	1.0
762.7686406161677	0.39309999999999995	3.9679999999999995	1.0
762.7686406161677	0.3913	4.067066666666667	1.0
762.7686406161677	0.4385333333333332	4.806933333333334	1.0
762.7701919185739	0.4745666666666666	5.130133333333333	1.0
762.7701919185739	0.4689	5.159866666666667	1.0
762.7701919185739	0.4550666666666666	5.0628	1.0
764.0105336280142	0.45853333333333324	4.955466666666666	1.0
764.0105336280142	0.45853333333333324	4.913733333333333	1.0
764.0105336280142	0.44939999999999986	4.8704	1.0
763.9717231419767	0.44123333333333326	4.8704	1.0
763.9717231419767	0.4526333333333332	4.886399999999999	1.0
763.9717231419767	0.44043333333333334	4.92	1.0
763.973263994391	0.44933333333333325	4.9564	1.0
763.973263994391	0.4520333333333332	4.965199999999999	1.0
763.973263994391	0.4531333333333332	4.972533333333334	1.0
764.927778396547	0.4464666666666667	4.8716	1.0
764.927778396547	0.44543333333333324	4.9996	1.0
764.927778396547	0.45063333333333333	5.144400000000001	1.0
765.0081723578418	0.4499666666666666	4.936	1.0
765.0081723578418	0.4499666666666666	4.777066666666666	1.0
765.0081723578418	0.42363333333333325	4.777066666666666	1.0
765.0103420140496	0.4543333333333332	5.020666666666667	1.0
765.0103420140496	0.41429999999999995	4.4964	1.0
765.0103420140496	0.4033	4.4405333333333346	1.0
765.3560698451713	0.4355666666666666	4.818133333333334	1.0
765.3560698451713	0.4624333333333332	5.273066666666666	1.0
765.3560698451713	0.4497666666666666	5.076533333333334	1.0
765.3571383972543	0.42859999999999987	4.9774666666666665	1.0
765.3571383972543	0.42129999999999995	4.667466666666668	1.0
765.3571383972543	0.4221333333333333	4.679600000000001	1.0
765.7907874847803	0.4221333333333333	4.612266666666667	1.0
765.7907874847803	0.4106333333333333	4.7910666666666675	1.0
765.7907874847803	0.41619999999999996	4.7910666666666675	1.0
765.9590575289326	0.4262666666666666	4.858133333333333	1.0
765.9590575289326	0.42079999999999995	4.7489333333333335	1.0
765.9590575289326	0.4294333333333333	4.811466666666667	1.0
766.9211892958882	0.4012333333333333	4.565066666666667	1.0
766.9211892958882	0.38823333333333326	4.440266666666668	1.0
766.9211892958882	0.3852666666666666	4.4748	1.0
766.9211892958882	0.4070666666666666	4.6032	1.0
766.9211892958882	0.3964	4.512666666666667	1.0
766.9211892958882	0.4148333333333333	4.724133333333334	1.0
767.7000102559113	0.4148333333333333	4.717600000000001	1.0
767.7000102559113	0.41096666666666665	4.717600000000001	1.0
767.7000102559113	0.42353333333333326	4.918266666666667	1.0
767.6998675935852	0.4521999999999999	5.061066666666667	1.0
767.6998675935852	0.4239666666666666	4.8636	1.0
768.3990882527503	0.4218666666666666	4.753333333333334	1.0
768.3990882527503	0.40443333333333326	4.603333333333334	1.0
768.3990882527503	0.41373333333333323	4.788266666666667	1.0
768.8382578979306	0.41813333333333325	4.821733333333333	1.0
768.8382578979306	0.4026999999999999	4.834666666666667	1.0
768.8382578979306	0.414	4.753733333333333	1.0
768.83489757797	0.414	4.740266666666667	1.0
768.83489757797	0.4153666666666666	4.854133333333333	1.0
768.83489757797	0.4183999999999999	4.854133333333333	1.0
769.2722738115991	0.4370666666666666	5.112533333333333	1.0
769.2722738115991	0.43346666666666667	5.0708	1.0
769.2722738115991	0.4373999999999999	5.159199999999999	1.0
769.8539366790246	0.4274333333333333	4.9568	1.0
769.8539366790246	0.4544666666666666	5.385333333333333	1.0
769.8539366790246	0.4447	5.366133333333334	1.0
770.4127898825654	0.4304666666666666	5.239733333333333	1.0
770.4127898825654	0.4400333333333332	5.1968	1.0
770.4127898825654	0.4397999999999999	5.342133333333333	1.0
770.8467581803308	0.4397999999999999	5.4768	1.0
770.8467581803308	0.455	5.247733333333334	1.0
770.8467581803308	0.4426333333333332	5.247733333333334	1.0
771.5541547160208	0.4247333333333333	5.026133333333333	1.0
771.5541547160208	0.4540333333333333	5.362533333333333	1.0
771.5541547160208	0.4294333333333333	5.140133333333333	1.0
771.9065042558398	0.3979999999999999	4.786133333333333	1.0
771.9065042558398	0.40429999999999994	4.796266666666667	1.0
771.9065042558398	0.42089999999999994	4.9577333333333335	1.0
771.992443783889	0.43526666666666664	5.311466666666667	1.0
771.992443783889	0.4393999999999999	5.374133333333333	1.0
771.992443783889	0.4445666666666666	5.478533333333333	1.0
771.992443783889	0.4445666666666666	5.4184	1.0
771.992443783889	0.4507333333333332	5.4184	1.0
771.992443783889	0.4255999999999999	5.084133333333333	1.0
773.4145712677819	0.4569333333333333	5.529599999999999	1.0
773.4145712677819	0.4520333333333333	5.554133333333333	1.0
773.4145712677819	0.46	5.576133333333332	1.0
773.4145712677819	0.4219666666666666	5.1892000000000005	1.0
773.4145712677819	0.4084999999999999	4.922	1.0
773.4145712677819	0.4000333333333333	4.903999999999999	1.0
774.2907961869181	0.4295666666666667	5.236400000000001	1.0
774.2907961869181	0.4100999999999999	5.000933333333333	1.0
774.2907961869181	0.4100999999999999	4.979466666666667	1.0
774.6477483561187	0.4179666666666666	4.979466666666667	1.0
774.6477483561187	0.4364333333333333	5.458	1.0
774.6477483561187	0.42153333333333326	5.2412	1.0
775.0016977832221	0.41409999999999997	5.160533333333333	1.0
775.0016977832221	0.4259666666666666	5.092933333333333	1.0
775.0016977832221	0.4127999999999999	5.0932	1.0
775.174005612235	0.42669999999999986	5.224666666666667	1.0
775.174005612235	0.41623333333333323	5.217333333333333	1.0
775.174005612235	0.4342	5.3646666666666665	1.0
775.3581192976411	0.4506666666666666	5.768933333333334	1.0
775.3581192976411	0.4506666666666666	5.7139999999999995	1.0
775.3581192976411	0.4707333333333332	5.449866666666666	1.0
776.1617897488582	0.43929999999999997	5.449866666666666	1.0
776.1617897488582	0.4211999999999999	5.306133333333334	1.0
776.87649648636	0.4666333333333333	5.774799999999999	1.0
776.87649648636	0.4724666666666666	5.821199999999999	1.0
776.87649648636	0.45416666666666666	5.6964	1.0
776.8763243109773	0.43606666666666666	5.3831999999999995	1.0
776.8763243109773	0.4302333333333333	5.3129333333333335	1.0
776.8763243109773	0.4658999999999999	5.794266666666666	1.0
777.6789860978063	0.46846666666666664	5.869599999999999	1.0
777.6789860978063	0.44823333333333326	5.594933333333333	1.0
777.6789860978063	0.44823333333333326	5.5736	1.0
778.0017248520757	0.45093333333333324	5.504	1.0
778.0017248520757	0.4521333333333333	5.504	1.0
778.0017248520757	0.43576666666666664	5.42	1.0
778.3973280943891	0.44149999999999995	5.358266666666666	1.0
778.3973280943891	0.4368666666666667	5.348	1.0
778.3973280943891	0.4386999999999999	5.4048	1.0
778.4856276606532	0.4513	5.6125333333333325	1.0
778.4856276606532	0.47889999999999994	5.902133333333333	1.0
778.4856276606532	0.4720333333333332	5.992	1.0
778.5721130485786	0.47803333333333325	5.932133333333333	1.0
778.5721130485786	0.47803333333333325	5.882133333333333	1.0
778.5721130485786	0.4841666666666666	6.1804	1.0
779.926146919432	0.5042	6.1804	1.0
779.926146919432	0.5087999999999999	6.226666666666667	1.0
779.926146919432	0.49276666666666663	6.064533333333333	1.0
780.0988197763301	0.4706	5.8516	1.0
780.0988197763301	0.4727	5.844533333333333	1.0
780.0988197763301	0.4821	5.747733333333333	1.0
780.8213336480003	0.4777666666666666	5.8486666666666665	1.0
780.8213336480003	0.49156666666666654	5.8536	1.0
780.8213336480003	0.44839999999999997	5.4105333333333325	1.0
781.2716910479913	0.4648666666666666	5.54	1.0
781.2716910479913	0.4648666666666666	6.045599999999999	1.0
781.2716910479913	0.5024333333333332	6.045599999999999	1.0
781.5463535484603	0.5191333333333332	6.378800000000001	1.0
781.5463535484603	0.5144999999999998	6.365066666666668	1.0
781.5463535484603	0.5116333333333333	6.398000000000001	1.0
781.6331882215079	0.5065	6.040933333333334	1.0
781.6331882215079	0.5087999999999999	6.04	1.0
781.6331882215079	0.5052666666666666	5.995866666666666	1.0
782.811666598814	0.5260666666666667	6.173066666666667	1.0
782.811666598814	0.5147999999999999	6.1488	1.0
782.811666598814	0.4855999999999999	5.692266666666666	1.0
783.1761244114405	0.4855999999999999	5.605733333333332	1.0
783.1761244114405	0.47589999999999993	5.4488	1.0
783.1761244114405	0.47326666666666656	5.4488	1.0
783.6269227674591	0.5043333333333334	5.886666666666667	1.0
783.6269227674591	0.5060666666666667	5.9548	1.0
783.6269227674591	0.5257333333333333	6.109866666666667	1.0
784.3575730022565	0.5194	5.898666666666666	1.0
784.3575730022565	0.4925333333333332	5.696133333333333	1.0
784.445542775918	0.48373333333333324	5.4048	1.0
784.445542775918	0.4700999999999999	5.4	1.0
784.445542775918	0.4822666666666665	5.526266666666666	1.0
784.7242588078324	0.5257999999999999	5.964133333333333	1.0
784.7242588078324	0.5257999999999999	6.3925333333333345	1.0
784.7242588078324	0.5482666666666666	6.378133333333334	1.0
784.8101683051715	0.5510999999999999	6.378133333333334	1.0
784.8101683051715	0.5468999999999998	6.2684	1.0
784.8101683051715	0.5237666666666666	6.014533333333333	1.0
785.9952127874976	0.5421333333333332	6.172266666666667	1.0
785.9952127874976	0.5466	6.035466666666667	1.0
785.9952127874976	0.5847666666666667	6.389333333333334	1.0
786.2750664458067	0.5931666666666666	6.359066666666668	1.0
786.2750664458067	0.5818666666666665	6.356400000000001	1.0
786.2750664458067	0.5656666666666667	6.2383999999999995	1.0
786.3645386398417	0.5185666666666666	5.688533333333333	1.0
786.3645386398417	0.5185666666666666	6.351866666666666	1.0
786.3645386398417	0.5961	5.494133333333333	1.0
787.5563668116322	0.5323666666666665	5.494133333333333	1.0
787.5563668116322	0.5832666666666666	6.036	1.0
787.5563668116322	0.5504666666666667	5.719733333333334	1.0
787.5559826950321	0.5617333333333333	5.663733333333333	1.0
787.5559826950321	0.5593666666666667	5.712266666666667	1.0
787.5559826950321	0.5844666666666666	5.908666666666666	1.0
787.9243349661574	0.6654	6.778933333333334	1.0
787.9243349661574	0.6712	6.879466666666666	1.0
787.9243349661574	0.6652333333333332	6.880533333333333	1.0
787.9239822466395	0.6672333333333333	6.815999999999999	1.0
787.9239822466395	0.6672333333333333	6.113066666666667	1.0
787.9239822466395	0.6227333333333334	6.113066666666667	1.0
788.1106488554543	0.6090999999999999	6.027466666666666	1.0
788.1106488554543	0.6033333333333333	5.9772	1.0
788.1106488554543	0.6871333333333333	6.2772	1.0
789.4916439131821	0.6807999999999998	6.066133333333333	1.0
789.4916439131821	0.6802999999999999	6.102666666666667	1.0
789.4916439131821	0.6800666666666666	6.113066666666667	1.0
789.4931734517356	0.6941999999999999	6.119200000000001	1.0
789.4931734517356	0.7458999999999999	6.338533333333334	1.0
789.4931734517356	0.8087333333333333	6.109866666666667	1.0
787.9229465304861	0.6308666666666666	6.378266666666667	1.0
787.5549282742627	0.5700333333333333	5.879333333333333	1.0
787.5549282742627	0.5704	5.885999999999999	1.0
787.5549282742627	0.6075	6.351333333333334	1.0
787.0971212498715	0.6075	5.8868	1.0
787.0971212498715	0.5736	5.629066666666666	1.0
787.0971212498715	0.5551333333333333	5.629066666666666	1.0
786.2764314706918	0.5667999999999999	6.047999999999999	1.0
786.2764314706918	0.5474999999999999	5.9472	1.0
786.2764314706918	0.5925999999999999	6.524533333333334	1.0
786.3136281305967	0.5955333333333332	6.576400000000001	1.0
786.3136281305967	0.5967333333333332	6.495066666666666	1.0
786.3136281305967	0.5871999999999999	6.556533333333333	1.0
785.0001852498344	0.5884999999999999	6.5123999999999995	1.0
785.0001852498344	0.5337666666666666	6.017333333333332	1.0
785.0001852498344	0.5155666666666665	5.897999999999999	1.0
784.8153695160087	0.5155666666666665	6.2292	1.0
784.8153695160087	0.5467333333333333	6.2292	1.0
784.8153695160087	0.5573999999999999	6.416	1.0
784.7233457617573	0.5605666666666665	6.381466666666667	1.0
784.7233457617573	0.5426333333333333	6.274400000000001	1.0
784.7233457617573	0.5310333333333332	5.926399999999998	1.0
784.4481062272988	0.49516666666666653	5.512533333333334	1.0
784.4481062272988	0.49076666666666663	5.531066666666666	1.0
784.4481062272988	0.5122333333333332	5.8804	1.0
784.4481062272988	0.5410333333333333	6.076933333333334	1.0
784.4481062272988	0.4997	5.744933333333333	1.0
784.4481062272988	0.4997	5.9403999999999995	1.0
783.5407570178459	0.5101333333333332	6.201066666666667	1.0
783.5407570178459	0.5278999999999999	6.201066666666667	1.0
783.5407570178459	0.4924333333333332	5.8104	1.0
783.0844082282854	0.5028333333333332	5.8806666666666665	1.0
783.0844082282854	0.5220333333333332	5.954666666666665	1.0
783.0844082282854	0.5252	6.249333333333334	1.0
782.8106857442544	0.5098999999999999	6.049066666666666	1.0
782.8106857442544	0.49113333333333326	5.787733333333333	1.0
782.8106857442544	0.5030999999999999	6.026533333333333	1.0
781.54842543181	0.4949333333333332	6.003333333333333	1.0
781.54842543181	0.4949333333333332	5.955066666666666	1.0
781.54842543181	0.5025999999999999	5.7922666666666665	1.0
781.6333863152382	0.4804333333333332	5.7922666666666665	1.0
781.6333863152382	0.4877999999999999	5.9016	1.0
781.6333863152382	0.46183333333333326	5.575733333333333	1.0
781.2714521569599	0.4771999999999999	5.576266666666665	1.0
781.2714521569599	0.46646666666666664	5.4784	1.0
781.2714521569599	0.4622666666666666	5.472666666666667	1.0
780.8622333696854	0.4847333333333332	5.742666666666667	1.0
780.8622333696854	0.4501333333333332	5.2510666666666665	1.0
780.8622333696854	0.4626666666666666	5.757066666666666	1.0
780.3763334504793	0.4605666666666666	5.436933333333333	1.0
780.3763334504793	0.4605666666666666	5.4116	1.0
780.3763334504793	0.44849999999999995	5.933999999999999	1.0
779.9272882749677	0.48329999999999995	5.933999999999999	1.0
779.9272882749677	0.5119666666666666	6.3129333333333335	1.0
779.9272882749677	0.4997333333333333	6.1884	1.0
779.6503537207344	0.48033333333333333	5.919866666666666	1.0
779.6503537207344	0.48833333333333334	6.03	1.0
779.6503537207344	0.4796999999999999	5.996533333333334	1.0
778.4854605879781	0.4763333333333333	5.904933333333333	1.0
778.4854605879781	0.4751333333333332	5.866533333333333	1.0
778.4854605879781	0.4671999999999999	5.671466666666666	1.0
778.3971387486334	0.44383333333333325	5.463066666666667	1.0
778.3971387486334	0.44383333333333325	5.7085333333333335	1.0
778.041834866169	0.45836666666666664	5.736000000000001	1.0
778.041834866169	0.4491333333333333	5.736000000000001	1.0
778.041834866169	0.47303333333333325	5.652	1.0
777.6799238292133	0.43883333333333324	5.4508	1.0
777.6799238292133	0.43133333333333324	5.363199999999999	1.0
777.6799238292133	0.4544999999999999	5.628266666666667	1.0
776.9618580054317	0.4471666666666666	5.4368	1.0
776.9618580054317	0.43146666666666667	5.2741333333333325	1.0
776.9618580054317	0.44609999999999994	5.572933333333333	1.0
776.9618580054317	0.4543666666666666	5.772266666666666	1.0
776.9618580054317	0.48579999999999984	6.116666666666666	1.0
776.9618580054317	0.48579999999999984	5.793066666666666	1.0
776.4294209997051	0.47623333333333323	5.793066666666666	1.0
776.4294209997051	0.4378666666666665	5.398533333333333	1.0
776.4294209997051	0.4770666666666666	5.919466666666666	1.0
775.2759731315514	0.44196666666666656	5.5309333333333335	1.0
775.2759731315514	0.41639999999999994	5.154266666666667	1.0
775.2759731315514	0.41609999999999997	5.1204	1.0
775.087517272899	0.422	5.107733333333333	1.0
775.087517272899	0.39133333333333326	4.7952	1.0
775.087517272899	0.4113333333333333	4.992266666666666	1.0
775.0048356637557	0.44873333333333326	5.649866666666667	1.0
775.0048356637557	0.44873333333333326	5.6324000000000005	1.0
775.0048356637557	0.45616666666666655	5.023866666666666	1.0
774.2924259902336	0.4223666666666666	5.023866666666666	1.0
774.2924259902336	0.43403333333333327	5.278933333333333	1.0
774.2924259902336	0.44453333333333317	5.331466666666667	1.0
773.8490619431886	0.4481666666666666	5.4412	1.0
773.8490619431886	0.4055333333333333	5.016933333333333	1.0
773.8490619431886	0.41439999999999994	5.1424	1.0
773.4948876351668	0.45916666666666656	5.643466666666667	1.0
773.4948876351668	0.44626666666666664	5.513733333333333	1.0
773.4948876351668	0.4401333333333332	5.338133333333333	1.0
772.2584573718904	0.4066333333333333	4.929333333333333	1.0
772.2584573718904	0.4066333333333333	4.776400000000001	1.0
772.2584573718904	0.4027666666666666	4.902	1.0
771.9907226144305	0.40763333333333324	4.902	1.0
771.9907226144305	0.4043999999999999	4.812400000000001	1.0
771.9907226144305	0.44889999999999997	5.435333333333333	1.0
771.9064760252055	0.4548666666666666	5.48	1.0
771.9064760252055	0.4500666666666666	5.446000000000001	1.0
771.9064760252055	0.4123333333333333	4.892133333333334	1.0
771.1143609719686	0.4183666666666666	5.014266666666667	1.0
771.1143609719686	0.40143333333333325	4.774933333333333	1.0
771.1143609719686	0.4221999999999999	5.018266666666666	1.0
770.7615451925972	0.4252666666666666	5.076266666666667	1.0
770.7615451925972	0.4252666666666666	5.111866666666667	1.0
770.7615451925972	0.4262666666666666	5.071866666666667	1.0
770.4117190721812	0.4353333333333333	5.071866666666667	1.0
770.4117190721812	0.42639999999999995	5.193333333333333	1.0
770.4117190721812	0.4230333333333332	5.030800000000001	1.0
769.2721119437339	0.4069	4.867733333333334	1.0
769.2721119437339	0.4754999999999999	5.777333333333334	1.0
769.2721119437339	0.4872666666666667	5.879866666666666	1.0
769.2721119437339	0.4896333333333333	5.803466666666666	1.0
769.2721119437339	0.41319999999999996	4.7572	1.0
769.2721119437339	0.4575666666666666	5.3564	1.0
768.8356965523177	0.4699333333333332	5.433866666666667	1.0
768.8356965523177	0.4699333333333332	5.415466666666666	1.0
768.8356965523177	0.4603333333333333	5.402666666666667	1.0
768.3997550268525	0.46319999999999995	5.402666666666667	1.0
768.3997550268525	0.4524333333333333	5.1416	1.0
768.3997550268525	0.4499666666666666	5.1689333333333325	1.0
768.050918655096	0.44596666666666657	5.191466666666667	1.0
768.050918655096	0.4296666666666666	5.063066666666667	1.0
767.8216500025212	0.41456666666666664	4.811733333333334	1.0
767.8216500025212	0.42659999999999987	4.8632	1.0
767.8216500025212	0.4324333333333332	4.899333333333333	1.0
767.8216500025212	0.4295666666666666	4.9362666666666675	1.0
767.8216500025212	0.4294	4.9304	1.0
767.8216500025212	0.4294	4.7885333333333335	1.0
767.8216500025212	0.4221666666666666	4.9204	1.0
767.8216500025212	0.42846666666666666	4.9204	1.0
767.8216500025212	0.4488	5.108133333333334	1.0
765.958552162578	0.42919999999999997	4.760000000000001	1.0
765.958552162578	0.4322666666666666	4.765866666666668	1.0
765.958552162578	0.41003333333333325	4.4328	1.0
765.8746542729903	0.3765666666666666	4.200266666666667	1.0
765.8746542729903	0.39416666666666655	4.438666666666666	1.0
765.8746542729903	0.4695333333333333	5.226533333333332	1.0
765.3591066218722	0.4390333333333333	4.7704	1.0
765.3591066218722	0.4390333333333333	4.461333333333334	1.0
765.3591066218722	0.40429999999999994	4.795733333333333	1.0
765.012288382211	0.42379999999999995	4.795733333333333	1.0
765.012288382211	0.4093666666666666	4.513333333333334	1.0
765.012288382211	0.4493666666666666	4.764266666666668	1.0
765.010119900967	0.4340999999999999	4.917866666666666	1.0
765.010119900967	0.4496666666666666	4.9756	1.0
765.010119900967	0.44519999999999993	4.989733333333334	1.0
764.4013819247571	0.4478333333333332	4.872	1.0
764.4013819247571	0.4179666666666666	4.6550666666666665	1.0
764.4013819247571	0.41769999999999996	4.613600000000001	1.0
763.9718972322454	0.40709999999999996	4.4012	1.0
763.9718972322454	0.40709999999999996	4.3053333333333335	1.0
763.9718972322454	0.4015999999999999	4.28	1.0
763.9699775886342	0.3895333333333333	4.28	1.0
763.9699775886342	0.3991666666666666	4.271733333333334	1.0
763.9699775886342	0.39263333333333333	4.211866666666666	1.0
768.4121097951502	0.3949666666666666	4.2528	1.0
768.4121097951502	0.40903333333333325	4.380533333333334	1.0
768.4121097951502	0.4067333333333333	4.4792	1.0
762.7692709304719	0.4178333333333332	4.5308	1.0
762.7692709304719	0.4101999999999999	4.516266666666667	1.0
762.7692709304719	0.41106666666666664	4.4405333333333346	1.0
762.424918447992	0.40343333333333325	4.246933333333333	1.0
762.424918447992	0.40343333333333325	4.589600000000001	1.0
762.424918447992	0.41753333333333326	4.547466666666668	1.0
762.0789838908923	0.41129999999999994	4.547466666666668	1.0
762.0789838908923	0.40966666666666657	4.303733333333334	1.0
762.0789838908923	0.4072333333333333	4.240399999999999	1.0
761.9987648152184	0.4033333333333333	4.2432	1.0
761.9987648152184	0.40343333333333325	4.2584	1.0
761.9987648152184	0.3994	4.243866666666667	1.0
765.3378707836883	0.4211	4.269866666666666	1.0
765.3378707836883	0.39383333333333326	4.2383999999999995	1.0
765.3378707836883	0.4004999999999999	4.205066666666666	1.0
758.242031177464	0.4004999999999999	4.1684	1.0
758.242031177464	0.41593333333333327	4.062133333333334	1.0
758.242031177464	0.41063333333333324	4.062133333333334	1.0
757.4763383590758	0.3948	3.9684	1.0
757.4763383590758	0.3974333333333333	3.894266666666666	1.0
757.4763383590758	0.42669999999999997	4.310666666666668	1.0
757.136188160496	0.4450666666666666	4.409466666666667	1.0
757.136188160496	0.4521333333333333	4.519466666666666	1.0
757.136188160496	0.4471	4.647733333333334	1.0
757.1361640926344	0.4673666666666666	4.600666666666666	1.0
757.1361640926344	0.4301999999999999	4.229333333333332	1.0
757.1361640926344	0.4196666666666666	4.191333333333333	1.0
756.7967605477762	0.4196666666666666	4.201066666666667	1.0
756.7967605477762	0.4100666666666666	4.292533333333334	1.0
756.7967605477762	0.4353999999999999	4.292533333333334	1.0
756.4594637743734	0.43846666666666656	4.416	1.0
756.4594637743734	0.41593333333333327	4.216266666666667	1.0
756.4594637743734	0.4178666666666666	4.1172	1.0
756.0391611424258	0.41539999999999994	4.205466666666666	1.0
756.0391611424258	0.43729999999999997	4.259066666666667	1.0
756.0391611424258	0.4415333333333333	4.281066666666667	1.0
756.0361520065214	0.4250666666666666	4.2998666666666665	1.0
756.0361520065214	0.4209333333333332	4.250133333333333	1.0
755.6964171785096	0.4275333333333333	4.225333333333333	1.0
755.6964171785096	0.4275333333333333	4.115866666666666	1.0
755.6964171785096	0.42039999999999994	4.099866666666667	1.0
754.1922075349208	0.4198666666666666	4.099866666666667	1.0
754.1922075349208	0.41439999999999994	4.104666666666667	1.0
754.1922075349208	0.41356666666666664	4.021066666666666	1.0
754.1854018066056	0.46063333333333334	4.392666666666667	1.0
754.1854018066056	0.4765	4.66	1.0
754.1854018066056	0.47023333333333334	4.678	1.0
753.8465311357169	0.42863333333333326	3.9979999999999993	1.0
753.8465311357169	0.4208333333333333	4.048933333333333	1.0
753.8465311357169	0.4572666666666665	4.403066666666667	1.0
753.4283802252165	0.4273999999999999	4.021733333333334	1.0
753.4283802252165	0.4273999999999999	3.964666666666667	1.0
753.4283802252165	0.42223333333333324	3.964666666666667	1.0
753.1744658174756	0.44626666666666653	4.2274666666666665	1.0
753.1744658174756	0.4419333333333333	4.2392	1.0
753.1744658174756	0.4653999999999998	4.208666666666667	1.0
752.7591875307326	0.43899999999999995	4.1025333333333345	1.0
752.7591875307326	0.4325666666666666	4.114400000000001	1.0
752.7591875307326	0.44593333333333324	4.079066666666668	1.0
752.0059244742038	0.4273999999999999	4.026400000000001	1.0
752.0059244742038	0.4648666666666665	4.220533333333333	1.0
752.0059244742038	0.46796666666666664	4.4448	1.0
751.5898653281006	0.46796666666666664	4.310266666666666	1.0
751.5898653281006	0.4593	4.106266666666667	1.0
751.5898653281006	0.4574333333333332	4.106266666666667	1.0
750.9998629614792	0.46643333333333326	4.358266666666667	1.0
750.9998629614792	0.47029999999999994	4.320266666666667	1.0
750.9998629614792	0.4602666666666666	4.102266666666667	1.0
750.9219438724346	0.4521333333333332	4.116533333333334	1.0
750.9219438724346	0.44113333333333327	4.110400000000001	1.0
750.9219438724346	0.44913333333333316	4.103866666666668	1.0
750.2513799848974	0.4557333333333332	4.113333333333333	1.0
750.2513799848974	0.4777666666666666	4.2059999999999995	1.0
750.2513799848974	0.4898333333333333	4.412533333333334	1.0
750.1709408111296	0.4898333333333333	4.455866666666667	1.0
750.1709408111296	0.4854666666666666	4.463466666666667	1.0
750.1709408111296	0.4954666666666666	4.463466666666667	1.0
