wavelength(nm)	flourescence PMT(V)	ti_saph Power (V)	Gain (V)
800.5173116859725	0.07886666666666663	-0.027200000000000023	1.0
800.5173116859725	0.08799999999999995	0.0398666666666667	1.0
800.5173116859725	0.08296666666666662	0.0386666666666667	1.0
800.7700916481616	0.08409999999999997	0.046933333333333375	1.0
800.7700916481616	0.08409999999999997	0.05546666666666671	1.0
800.8988651450746	0.08649999999999995	0.06440000000000005	1.0
800.8953372224815	0.08053333333333328	0.06440000000000005	1.0
801.082318813859	0.08589999999999996	0.06626666666666672	1.0
801.082318813859	0.08316666666666661	0.06466666666666673	1.0
801.1842368503395	0.08586666666666662	0.0725333333333334	1.0
801.1849555776928	0.08446666666666663	0.07866666666666673	1.0
801.1849555776928	0.08103333333333329	0.0753333333333334	1.0
801.2752172270002	0.0822333333333333	0.08266666666666674	1.0
801.2785707553237	0.08609999999999995	0.10893333333333345	1.0
801.2785707553237	0.08726666666666662	0.12226666666666679	1.0
801.2803402818411	0.08736666666666662	0.1442666666666668	1.0
801.3723824115274	0.08736666666666662	0.1550666666666668	1.0
801.3723476878752	0.08819999999999996	0.16000000000000014	1.0
801.3723476878752	0.09196666666666663	0.16000000000000014	1.0
801.3723476878752	0.09186666666666662	0.16000000000000014	1.0
801.3732832700067	0.09153333333333329	0.16000000000000014	1.0
801.3732832700067	0.0914333333333333	0.16000000000000014	1.0
802.7006676832493	0.13599999999999995	1.4168	1.0
802.7012285392651	0.1371333333333333	1.4036	1.0
802.7012285392651	0.13706666666666661	1.4273333333333333	1.0
804.137035322266	0.22209999999999988	3.896266666666667	1.0
804.2369451582115	0.2351999999999999	4.107333333333334	1.0
804.2358902132958	0.23563333333333322	4.066133333333334	1.0
804.2358902132958	0.23563333333333322	4.0112000000000005	1.0
804.2338254768083	0.2219666666666666	3.9955999999999996	1.0
804.2348071799341	0.22586666666666655	3.9955999999999996	1.0
804.2348071799341	0.22049999999999992	3.9625333333333326	1.0
804.4360700397503	0.2246999999999999	3.9764000000000004	1.0
804.4686245423251	0.24409999999999987	4.2432	1.0
804.4686245423251	0.2416999999999999	4.424000000000001	1.0
804.4686245423251	0.24866666666666656	4.625466666666666	1.0
804.6218045913243	0.26183333333333325	4.960933333333333	1.0
804.6218045913243	0.26683333333333326	4.997733333333333	1.0
804.6225168287391	0.2601333333333332	4.931466666666667	1.0
804.7085649171127	0.2531333333333332	4.638533333333333	1.0
804.7165893731711	0.2531333333333332	4.584133333333333	1.0
804.7165893731711	0.25713333333333327	4.584133333333333	1.0
805.9618135238134	0.2481666666666666	4.5464	1.0
805.9592018220827	0.25869999999999993	4.676533333333333	1.0
805.9592018220827	0.25669999999999993	4.812266666666666	1.0
805.8688530642595	0.2671666666666666	4.8664000000000005	1.0
805.9639182499361	0.25896666666666657	4.8252	1.0
805.9639182499361	0.25796666666666657	4.781066666666667	1.0
807.1179221094355	0.2703999999999999	4.8802666666666665	1.0
807.5097877780904	0.25739999999999996	4.863866666666667	1.0
807.5988633886883	0.2484999999999999	4.5884	1.0
807.5988633886883	0.2382999999999999	4.513866666666667	1.0
807.89241623243	0.2382999999999999	4.492000000000001	1.0
807.89241623243	0.24363333333333326	4.492000000000001	1.0
807.89241623243	0.26729999999999987	5.0164	1.0
807.8934070883406	0.2726999999999999	5.097866666666667	1.0
807.8934070892082	0.27586666666666654	5.1804	1.0
807.8934070892082	0.2786999999999999	5.192666666666667	1.0
807.9931743666544	0.26876666666666654	5.093333333333334	1.0
807.9921908836789	0.25533333333333325	4.851466666666667	1.0
807.9890771226192	0.2618666666666666	4.834533333333334	1.0
807.9890771226192	0.2611333333333333	4.8392	1.0
808.2818485157699	0.26306666666666656	4.790533333333332	1.0
808.2818485157699	0.26306666666666656	4.632000000000001	1.0
808.2818485157699	0.2624333333333332	4.6222666666666665	1.0
808.2818189198429	0.25593333333333323	4.6222666666666665	1.0
809.4480373561495	0.25116666666666654	4.6428	1.0
809.4480373561495	0.27963333333333323	5.2463999999999995	1.0
809.4480188143858	0.2807666666666666	5.3668	1.0
809.4480188143858	0.27429999999999993	5.324666666666667	1.0
809.452636769334	0.2744666666666666	5.302	1.0
809.452636769334	0.2721333333333332	5.081333333333333	1.0
810.8033430563177	0.25809999999999994	4.943866666666666	1.0
810.9027178154557	0.2568666666666666	5.059333333333334	1.0
810.9027178154557	0.26093333333333324	4.816666666666666	1.0
810.9003495315119	0.26093333333333324	4.8056	1.0
811.1003979199598	0.25243333333333323	4.8336	1.0
811.1003979199598	0.24819999999999992	4.8336	1.0
811.1003979199598	0.24639999999999987	4.818533333333333	1.0
811.2018698204016	0.2502999999999999	4.843999999999999	1.0
811.2914340312674	0.25806666666666656	5.0044	1.0
811.2914340312674	0.2595333333333333	5.168799999999999	1.0
811.3910405702636	0.2657999999999999	4.984	1.0
811.3994576862426	0.2506333333333332	4.844266666666667	1.0
811.3994576862426	0.2552666666666666	4.9189333333333325	1.0
811.3994576862426	0.2641999999999999	5.122000000000001	1.0
811.4936814073121	0.27029999999999993	5.389733333333334	1.0
811.4936814073121	0.27029999999999993	5.396133333333333	1.0
811.4977519227876	0.2803666666666666	5.342933333333333	1.0
811.685297361026	0.27083333333333326	5.342933333333333	1.0
811.7837888536747	0.26683333333333326	5.300799999999999	1.0
811.7837888536747	0.2656666666666666	5.3396	1.0
812.9756925344383	0.26666666666666655	5.173466666666667	1.0
812.8585704673702	0.25549999999999995	5.043333333333333	1.0
812.8585704673702	0.2626333333333332	4.975599999999999	1.0
812.95534404379	0.2651333333333333	5.090533333333334	1.0
812.9560873094346	0.2558666666666666	5.053333333333334	1.0
812.9560873094346	0.26079999999999987	5.1925333333333334	1.0
814.526794549796	0.2706333333333332	5.351333333333334	1.0
814.526794549796	0.2706333333333332	5.409333333333333	1.0
814.526794549796	0.2630666666666666	5.561199999999999	1.0
814.5277867013009	0.2745999999999999	5.561199999999999	1.0
814.7218044147629	0.2678999999999999	5.5881333333333325	1.0
814.7283319593813	0.26199999999999996	5.328799999999999	1.0
814.7283319593813	0.2538999999999999	5.0692	1.0
814.7205600670318	0.2475666666666666	4.881733333333333	1.0
815.1119656402061	0.2519333333333333	4.96	1.0
815.1119656402061	0.2684999999999999	5.712533333333334	1.0
815.1140642426446	0.27116666666666656	5.751733333333333	1.0
815.1140715236696	0.2636333333333333	5.731466666666667	1.0
815.1140715236696	0.27613333333333323	5.720533333333334	1.0
815.1130140659628	0.27613333333333323	5.7502666666666675	1.0
815.3182133954592	0.2643666666666666	5.868799999999999	1.0
816.2019654458567	0.27406666666666657	5.868799999999999	1.0
816.2019654458567	0.25083333333333324	5.3388	1.0
816.2032752072165	0.24909999999999988	5.276666666666666	1.0
817.491179786835	0.24993333333333326	5.3137333333333325	1.0
817.491179786835	0.25929999999999986	5.6764	1.0
817.4930961765705	0.2599333333333332	5.7148	1.0
817.6667828722232	0.25043333333333323	5.669066666666666	1.0
817.6667828722232	0.2537999999999999	5.688266666666666	1.0
817.6667828722232	0.24303333333333324	5.72	1.0
817.6667828722232	0.2501333333333332	5.719866666666666	1.0
818.2856719250133	0.2501333333333332	5.720133333333333	1.0
818.2856719250133	0.2613666666666666	5.720400000000001	1.0
818.2866676047277	0.24616666666666656	5.720400000000001	1.0
818.2857181729707	0.2525333333333332	5.719733333333334	1.0
818.2857181729707	0.25633333333333325	5.72	1.0
818.2856969873429	0.2556666666666666	5.72	1.0
818.5847578277352	0.24586666666666654	5.5898666666666665	1.0
818.6822348802257	0.23723333333333324	5.203333333333333	1.0
818.6822348802257	0.23219999999999993	5.0872	1.0
818.6822348802257	0.22899999999999993	5.100533333333334	1.0
818.778299362448	0.2397333333333332	5.451066666666668	1.0
818.778299362448	0.2339999999999999	5.450666666666666	1.0
820.3734241179819	0.2339999999999999	5.365466666666666	1.0
820.4715545510633	0.23339999999999994	5.365466666666666	1.0
820.4715545510633	0.23339999999999994	5.435066666666667	1.0
820.4707844963108	0.2269666666666666	5.382933333333333	1.0
820.4707844963108	0.2297666666666666	5.423733333333333	1.0
820.4707844963108	0.2298999999999999	5.587333333333333	1.0
820.4707844963108	0.23509999999999992	5.801866666666666	1.0
821.5739815269653	0.23053333333333323	5.571066666666666	1.0
821.5739815269653	0.22929999999999987	5.271866666666667	1.0
821.5739815269653	0.22163333333333327	5.163733333333333	1.0
821.5771837465085	0.22133333333333327	5.222799999999999	1.0
821.7712678320753	0.23453333333333323	5.683733333333333	1.0
821.7712678320753	0.23453333333333323	5.684533333333333	1.0
821.7729705792557	0.2276999999999999	5.684533333333333	1.0
821.7729705792557	0.23963333333333325	5.681066666666665	1.0
821.7729705792557	0.2313666666666666	5.913333333333333	1.0
821.7729705792557	0.2225999999999999	5.799333333333334	1.0
822.1747416980345	0.23473333333333324	5.814400000000001	1.0
822.1757400173966	0.24139999999999992	5.918266666666666	1.0
822.1757400173966	0.24069999999999994	5.933333333333333	1.0
822.172527882113	0.24033333333333323	6.043066666666667	1.0
823.4858172026594	0.2213999999999999	5.978133333333333	1.0
823.4858172026594	0.21899999999999992	5.793466666666666	1.0
823.7799178929916	0.21899999999999992	6.0468	1.0
823.9276259708091	0.2184666666666666	6.111866666666667	1.0
823.9276259708091	0.21873333333333325	6.111866666666667	1.0
823.7831783855626	0.2210666666666666	6.0418666666666665	1.0
824.2826282397062	0.21436666666666657	6.0508	1.0
824.2858433667419	0.21393333333333325	5.8564	1.0
824.2858433667419	0.21063333333333323	5.742533333333334	1.0
824.2862508865878	0.20816666666666658	5.733333333333333	1.0
824.99436803695	0.2187999999999999	5.925599999999999	1.0
824.99436803695	0.20833333333333323	5.764133333333334	1.0
824.9938825599688	0.2037999999999999	5.650133333333333	1.0
825.1352944268449	0.2012999999999999	5.801200000000001	1.0
825.1352944268449	0.2012999999999999	5.868399999999999	1.0
825.1352944268449	0.20443333333333324	6.279066666666667	1.0
825.3979743012527	0.2098666666666666	6.279066666666667	1.0
825.5992591141234	0.22039999999999993	6.371866666666668	1.0
825.5992591141234	0.2146666666666666	6.301733333333334	1.0
825.601054049465	0.2009999999999999	5.872399999999999	1.0
825.7062354596952	0.1937666666666666	5.452000000000001	1.0
825.7062354596952	0.20113333333333325	5.8293333333333335	1.0
825.7062354596952	0.19579999999999992	5.819333333333334	1.0
826.1035436903622	0.19143333333333326	5.5906666666666665	1.0
826.1035436903622	0.19483333333333325	5.624666666666667	1.0
827.0213860502591	0.18999999999999992	6.002133333333333	1.0
827.119408518132	0.18999999999999992	6.1356	1.0
827.0148466396827	0.1961999999999999	6.073466666666667	1.0
827.0148466396827	0.19739999999999994	6.073466666666667	1.0
827.3237358146306	0.19173333333333323	6.171733333333333	1.0
827.3282212956732	0.2027666666666666	6.2034666666666665	1.0
827.3282212956732	0.1951999999999999	6.173733333333333	1.0
827.9324410533875	0.18893333333333326	5.840533333333333	1.0
828.1329102033105	0.17789999999999992	5.851199999999999	1.0
828.1329102033105	0.18589999999999993	5.972799999999999	1.0
828.6443320973576	0.18293333333333328	5.892266666666666	1.0
828.6453357441205	0.18079999999999993	6.070799999999999	1.0
828.8546655861552	0.18313333333333326	6.112266666666667	1.0
828.8546655861552	0.18313333333333326	6.053866666666667	1.0
829.2579174576103	0.18396666666666658	6.143066666666667	1.0
829.259004562269	0.18826666666666655	6.143066666666667	1.0
829.259004562269	0.17803333333333327	6.1197333333333335	1.0
829.3582307752182	0.18039999999999992	6.027733333333333	1.0
829.5660697579431	0.17743333333333325	5.958799999999999	1.0
829.5660697579431	0.17246666666666657	6.098	1.0
829.8729925504898	0.18189999999999992	6.174666666666667	1.0
830.0757736039278	0.18119999999999992	6.084666666666667	1.0
830.0808107644192	0.17216666666666658	6.0713333333333335	1.0
830.0808107644192	0.18093333333333325	6.060666666666667	1.0
830.4839553886937	0.16606666666666658	5.761333333333334	1.0
830.4821616445579	0.16606666666666658	5.7284	1.0
830.4821616445579	0.16926666666666657	5.8052	1.0
830.4818796420833	0.1653666666666666	5.8052	1.0
831.5074378208973	0.17099999999999993	5.936133333333333	1.0
831.5074378208973	0.1698666666666666	6.0376	1.0
831.5056227636203	0.16403333333333325	5.7354666666666665	1.0
831.7187353374369	0.16473333333333323	5.624399999999999	1.0
831.9186798275749	0.16693333333333327	5.7885333333333335	1.0
831.9186798275749	0.16583333333333325	6.117733333333334	1.0
831.3389181499723	0.1714666666666666	6.4380000000000015	1.0
832.7422794657265	0.16959999999999995	6.458266666666667	1.0
832.7422794657265	0.16873333333333326	6.471066666666667	1.0
832.7437167315447	0.16873333333333326	6.548800000000001	1.0
832.7396051607643	0.1699999999999999	6.590400000000002	1.0
832.7396051607643	0.1688666666666666	6.590400000000002	1.0
832.7455739930298	0.16993333333333324	6.504933333333335	1.0
832.7437284299489	0.1711666666666666	6.502533333333334	1.0
832.9518203923562	0.16429999999999992	6.4028	1.0
832.9518203923562	0.16993333333333324	6.342666666666667	1.0
833.3615012738094	0.16279999999999992	6.3921333333333346	1.0
833.4678469336749	0.16499999999999992	6.3276	1.0
833.4678469336749	0.16449999999999992	6.157866666666666	1.0
833.3601108245178	0.16456666666666658	6.131466666666667	1.0
833.3614707557041	0.15863333333333324	6.144533333333333	1.0
833.3614707557041	0.15863333333333324	6.129866666666667	1.0
833.8740644278165	0.1573666666666666	6.167999999999999	1.0
833.9826980170546	0.15796666666666662	6.167999999999999	1.0
834.495484583169	0.15196666666666664	5.998666666666666	1.0
834.495484583169	0.1605666666666666	6.066533333333333	1.0
834.5960151996476	0.16039999999999993	6.231733333333334	1.0
834.3953352772102	0.15873333333333328	6.415866666666667	1.0
834.3953352772102	0.15306666666666663	6.2376000000000005	1.0
834.5983526943174	0.15783333333333327	6.4132	1.0
834.915296944642	0.16893333333333327	6.757600000000001	1.0
834.915296944642	0.1735666666666666	6.722666666666666	1.0
835.3780246377819	0.16929999999999992	6.356933333333335	1.0
835.4328914856015	0.16929999999999992	6.3306666666666676	1.0
835.7385357271756	0.16739999999999994	6.768000000000001	1.0
835.7385357271756	0.17343333333333324	6.768000000000001	1.0
836.049386537745	0.18693333333333323	6.842266666666666	1.0
836.3593114763453	0.1818666666666666	6.558533333333334	1.0
836.3593114763453	0.18543333333333326	6.413200000000001	1.0
836.7748813087125	0.20176666666666657	6.473333333333334	1.0
836.8182476323286	0.20906666666666657	6.6244000000000005	1.0
836.8182476323286	0.2175666666666666	6.678666666666667	1.0
837.0912030232425	0.23549999999999993	6.787066666666666	1.0
837.0861178513678	0.25323333333333325	6.897333333333333	1.0
837.0903468262202	0.24596666666666656	6.943466666666667	1.0
837.0903468262202	0.24596666666666656	6.908533333333333	1.0
837.0890041005149	0.24649999999999986	6.841733333333333	1.0
837.5063924071676	0.25219999999999987	6.841733333333333	1.0
837.5063924071676	0.2461666666666666	6.302666666666667	1.0
837.5072583833805	0.25099999999999995	6.050933333333333	1.0
837.71353458175	0.25186666666666657	6.040266666666667	1.0
837.71353458175	0.2704999999999999	6.344266666666667	1.0
837.9230911745597	0.2917333333333333	6.598533333333334	1.0
837.9229722453834	0.3030999999999999	6.771733333333334	1.0
838.3400343246856	0.30899999999999994	6.675733333333334	1.0
838.3400343246856	0.33563333333333334	6.457866666666667	1.0
838.4501556356279	0.3379999999999999	6.451466666666667	1.0
839.2817241721996	0.3379999999999999	6.677466666666666	1.0
839.2817241721996	0.3801333333333333	6.662133333333333	1.0
839.2832455697978	0.4275333333333333	6.662133333333333	1.0
839.3883876135358	0.43379999999999996	6.591733333333333	1.0
839.3883876135358	0.4632333333333332	6.785466666666666	1.0
839.3803027682258	0.44713333333333327	6.679866666666666	1.0
839.3840637387243	0.5001333333333332	6.6	1.0
839.2849545252484	0.43646666666666656	6.491466666666667	1.0
839.2849545252484	0.4390333333333333	6.465866666666667	1.0
839.1790200952026	0.41176666666666656	6.4144000000000005	1.0
839.1788986206075	0.40306666666666663	6.273733333333333	1.0
839.1788986206075	0.3520666666666666	6.430533333333334	1.0
838.3382812576853	0.3273999999999999	6.518666666666667	1.0
838.3382812576853	0.3273999999999999	6.460800000000001	1.0
838.3382812576853	0.3327333333333333	6.606266666666667	1.0
837.926864126295	0.29953333333333326	6.606266666666667	1.0
838.0634682304425	0.2986666666666666	6.7484	1.0
837.5020044668414	0.3024333333333333	6.724933333333333	1.0
837.5020044668414	0.2741333333333333	6.349466666666667	1.0
837.5097883419396	0.2526999999999999	6.051466666666667	1.0
837.5097883419396	0.2511999999999999	6.191466666666667	1.0
837.5097883419396	0.2498999999999999	6.687466666666666	1.0
837.0911776362609	0.2494999999999999	6.8072	1.0
837.0904462547243	0.25033333333333324	6.962266666666666	1.0
837.0904462547243	0.24596666666666658	6.954	1.0
836.7740457797694	0.24596666666666658	6.914933333333334	1.0
836.5681216948194	0.2321666666666666	6.8076	1.0
836.3580552951344	0.22013333333333326	6.8076	1.0
836.3580552951344	0.21119999999999992	6.6724	1.0
836.3631930729015	0.20146666666666657	6.482400000000001	1.0
835.7395468035165	0.19483333333333325	6.258133333333332	1.0
835.7395468035165	0.18429999999999994	6.579066666666668	1.0
835.7384244429574	0.1737999999999999	6.7012	1.0
835.4277563027414	0.1724999999999999	6.833333333333333	1.0
835.4277563027414	0.1757666666666666	6.642666666666667	1.0
835.4284416471161	0.15969999999999995	6.158266666666667	1.0
834.9078754404642	0.16189999999999993	6.175599999999999	1.0
834.5995082164591	0.16189999999999993	6.405600000000001	1.0
834.5995082164591	0.1571333333333333	6.2918666666666665	1.0
834.2933733094717	0.1603666666666666	6.2918666666666665	1.0
833.9826970350019	0.16579999999999995	6.357066666666666	1.0
833.9826970350019	0.16629999999999992	6.579333333333334	1.0
833.9827450709977	0.15729999999999994	6.124	1.0
833.8847024829092	0.15919999999999992	6.158666666666666	1.0
833.8847024829092	0.16243333333333326	6.226933333333333	1.0
833.4671407463738	0.15976666666666658	6.2928	1.0
833.2564108981985	0.16303333333333328	6.5224	1.0
833.052110237251	0.16983333333333328	6.635466666666667	1.0
833.052110237251	0.1598666666666666	6.600933333333334	1.0
833.0552443149097	0.1598666666666666	6.442533333333334	1.0
832.9517987246433	0.1626999999999999	6.354133333333334	1.0
832.9517987246433	0.16393333333333326	6.354133333333334	1.0
832.745637823363	0.1599333333333333	6.335866666666667	1.0
832.6391756398655	0.16843333333333324	6.5309333333333335	1.0
832.6391756398655	0.1621666666666666	6.357733333333334	1.0
831.9233717522766	0.16709999999999992	6.31	1.0
831.9214990152987	0.17926666666666657	6.6784	1.0
831.50726798791	0.16969999999999993	6.276533333333333	1.0
831.50726798791	0.16259999999999994	5.7168	1.0
831.2077875926399	0.16686666666666658	5.664	1.0
831.0015026157884	0.16673333333333326	5.6972	1.0
831.0015026157884	0.16759999999999994	5.8533333333333335	1.0
830.5852530423034	0.16759999999999994	6.313466666666668	1.0
830.3811264085774	0.18773333333333325	6.075200000000001	1.0
830.3811264085774	0.17333333333333326	6.075200000000001	1.0
830.3829709721325	0.1703999999999999	6.004933333333334	1.0
829.8687018235445	0.17813333333333328	6.013066666666667	1.0
829.5683794387191	0.17599999999999993	5.9732	1.0
829.5683794387191	0.17253333333333326	5.932399999999999	1.0
829.5683794387191	0.17716666666666658	6.056266666666667	1.0
829.4646721065291	0.18839999999999993	6.529333333333333	1.0
829.4646721065291	0.18689999999999993	6.6058666666666666	1.0
829.4646721065291	0.18513333333333326	6.440666666666668	1.0
829.2616348132499	0.1775666666666666	6.262133333333333	1.0
829.2616348132499	0.1775666666666666	6.2416	1.0
829.2626955274966	0.17933333333333326	6.237333333333333	1.0
829.2593122252971	0.18499999999999991	6.237333333333333	1.0
828.5437495708493	0.1785999999999999	6.1113333333333335	1.0
828.5437495708493	0.17779999999999993	6.040533333333332	1.0
828.5447368634635	0.17523333333333327	5.838933333333332	1.0
828.5447368634635	0.1708999999999999	5.612	1.0
828.5447368634635	0.18656666666666658	6.004266666666666	1.0
828.133949165705	0.1831666666666666	6.059200000000001	1.0
827.2235695227615	0.19063333333333327	5.908533333333333	1.0
827.2235695227615	0.18296666666666658	5.903333333333332	1.0
827.2235695227615	0.1997999999999999	5.887066666666667	1.0
827.1242735011887	0.1997999999999999	5.9075999999999995	1.0
827.1242735011887	0.19256666666666658	5.9744	1.0
827.1242735011887	0.19283333333333327	5.9744	1.0
826.3111467969657	0.20676666666666657	6.2688	1.0
826.3098223951107	0.20223333333333324	6.040133333333333	1.0
826.3098223951107	0.20316666666666658	5.940666666666667	1.0
825.8011410732687	0.1982666666666666	5.8264000000000005	1.0
825.7082228165046	0.1988999999999999	5.8398666666666665	1.0
825.7082228165046	0.19859999999999992	5.762	1.0
825.6010236223423	0.19063333333333324	5.352266666666667	1.0
825.6010236223423	0.19553333333333325	5.381466666666667	1.0
825.3996738697053	0.2085999999999999	5.885733333333333	1.0
825.3996738697053	0.2085999999999999	6.145466666666667	1.0
825.3995837065612	0.20939999999999992	6.145466666666667	1.0
825.194221870443	0.21056666666666657	6.223066666666667	1.0
825.194221870443	0.20939999999999992	5.999866666666667	1.0
824.9928762046343	0.20389999999999991	5.8824	1.0
824.3897547282364	0.2065999999999999	5.6874666666666664	1.0
824.3897547282364	0.2148999999999999	5.830133333333333	1.0
824.2868725855119	0.2097999999999999	5.9093333333333335	1.0
824.28411895558	0.21666666666666656	5.9944	1.0
823.7820809396196	0.2161999999999999	5.702400000000001	1.0
823.7820809396196	0.22123333333333325	5.910133333333333	1.0
823.8793742481397	0.22123333333333325	5.917333333333333	1.0
823.8845474967535	0.2224666666666666	5.886933333333333	1.0
823.8845474967535	0.22456666666666658	5.886933333333333	1.0
823.4813538490386	0.21593333333333325	5.667066666666666	1.0
822.4791260400758	0.21226666666666658	5.472933333333334	1.0
822.4791260400758	0.22363333333333324	5.899733333333334	1.0
822.4791260400758	0.22683333333333322	5.817200000000001	1.0
822.1756924374204	0.22919999999999988	5.794133333333334	1.0
822.1729238388518	0.2301999999999999	5.654933333333332	1.0
822.1729238388518	0.22336666666666655	5.6808	1.0
822.1754448584566	0.22546666666666657	5.763866666666666	1.0
821.9768017793734	0.23443333333333324	5.971333333333333	1.0
821.9768017793734	0.23443333333333324	5.923333333333333	1.0
821.7701300002298	0.2349999999999999	5.809733333333334	1.0
821.7722423818589	0.24199999999999988	5.809733333333334	1.0
821.7722423818589	0.22153333333333328	5.636266666666667	1.0
821.7722423818589	0.2272999999999999	5.248666666666666	1.0
820.974412628609	0.21406666666666657	5.3078666666666665	1.0
820.7770449513544	0.2323666666666666	5.582666666666666	1.0
820.7770449513544	0.23636666666666656	5.5108	1.0
820.472670683514	0.22306666666666658	5.376933333333333	1.0
820.4724526001622	0.22423333333333328	5.383733333333333	1.0
820.4724526001622	0.23256666666666662	5.462133333333334	1.0
820.4724526001622	0.23583333333333323	5.339466666666667	1.0
818.684161951281	0.23583333333333323	5.072933333333333	1.0
818.684161951281	0.23146666666666657	5.072933333333333	1.0
818.6861366622666	0.2271666666666666	4.964666666666666	1.0
818.6812348493514	0.23066666666666658	4.9204	1.0
818.6812348493514	0.23409999999999986	5.0796	1.0
818.6812348493514	0.24133333333333326	5.4108	1.0
818.2813237540302	0.26439999999999986	5.7812	1.0
818.2824673870955	0.2604999999999999	5.8564	1.0
818.2824673870955	0.2647999999999999	5.8810666666666656	1.0
818.2812815511664	0.26356666666666667	5.888666666666666	1.0
818.2855826290048	0.2611999999999999	5.880533333333333	1.0
818.2855826290048	0.2611999999999999	5.8209333333333335	1.0
817.4892396695856	0.25546666666666656	5.722266666666668	1.0
817.490032869346	0.2624999999999999	5.722266666666668	1.0
817.4900200045927	0.2566666666666666	5.779333333333333	1.0
817.4900200045927	0.2607666666666666	5.7792	1.0
816.2074441357562	0.25293333333333323	5.365333333333333	1.0
815.3171006642924	0.24813333333333323	5.176933333333333	1.0
815.3171006642924	0.2524999999999999	5.3412	1.0
815.3171006642924	0.27456666666666657	5.747066666666667	1.0
815.3181359713068	0.2768333333333332	5.859733333333333	1.0
815.3181359713068	0.2726666666666666	5.7884	1.0
815.1130425319665	0.2670999999999999	5.72	1.0
815.1139441256588	0.2670999999999999	5.713866666666668	1.0
815.1139441256588	0.2768999999999999	5.431333333333333	1.0
814.72178474855	0.26383333333333325	5.431333333333333	1.0
814.7234714352833	0.2599999999999999	5.0816	1.0
814.5268340972051	0.26303333333333323	5.239599999999999	1.0
814.5268340972051	0.2602999999999999	5.3148	1.0
814.5310617270877	0.2664999999999999	5.5184	1.0
814.5289268396108	0.27229999999999993	5.786133333333334	1.0
814.5289268396108	0.2769666666666666	5.819466666666667	1.0
814.5289268396108	0.26769999999999994	5.630133333333333	1.0
813.1535861132991	0.2669333333333333	5.157333333333334	1.0
813.1535861132991	0.2626666666666666	5.1433333333333335	1.0
813.0954488664656	0.2626666666666666	5.189066666666667	1.0
812.8598288986124	0.2607666666666666	5.189066666666667	1.0
812.8619569178809	0.2570666666666666	5.166666666666667	1.0
812.8619569178809	0.25543333333333323	4.965066666666667	1.0
811.6864596645231	0.2759999999999999	5.211200000000001	1.0
811.6864596645231	0.2704999999999999	5.456266666666667	1.0
811.6864596645231	0.2848999999999999	5.5504	1.0
811.492667603169	0.26156666666666656	5.249466666666667	1.0
811.4926668597195	0.2726333333333333	5.24	1.0
811.4926668597195	0.2646666666666666	5.239866666666667	1.0
811.392039482789	0.2719666666666666	5.2352	1.0
811.3926805540076	0.2719666666666666	5.160399999999999	1.0
811.2935113274027	0.25793333333333324	5.09	1.0
811.2935113274027	0.26553333333333323	5.09	1.0
811.2935833920113	0.25359999999999994	5.011333333333334	1.0
811.2018111261611	0.2610999999999999	5.066533333333333	1.0
811.2018111261611	0.2732333333333332	5.3478666666666665	1.0
811.2018488749393	0.27359999999999995	5.384399999999999	1.0
810.9049137538068	0.26543333333333324	5.3504	1.0
810.9049137538068	0.27529999999999993	5.221466666666667	1.0
810.5122698411378	0.25806666666666656	5.1251999999999995	1.0
810.5121478550925	0.26359999999999995	5.011866666666666	1.0
810.5121478550925	0.2614666666666666	5.119733333333333	1.0
810.5121478550925	0.2614666666666666	5.1296	1.0
809.447325076413	0.26343333333333324	5.1536	1.0
809.4462925276853	0.27123333333333327	5.1536	1.0
809.4462925276853	0.2615333333333333	5.184933333333333	1.0
808.281808707826	0.2728999999999999	5.1716	1.0
808.2818281421486	0.24796666666666659	4.59	1.0
808.2818281421486	0.25493333333333323	4.555599999999999	1.0
807.992200149532	0.24943333333333328	4.647600000000001	1.0
807.9920077812546	0.2555333333333332	4.6696	1.0
807.9869474026169	0.2520999999999999	4.6681333333333335	1.0
807.9869474026169	0.25133333333333324	4.7338666666666676	1.0
807.9918297086242	0.25379999999999997	4.771066666666667	1.0
807.8967112838216	0.25379999999999997	4.9288	1.0
807.8967112838216	0.2651666666666666	5.166933333333334	1.0
807.8967112838216	0.26919999999999994	5.166933333333334	1.0
807.893558461701	0.2684999999999999	5.228666666666666	1.0
807.893558461701	0.27629999999999993	5.238266666666667	1.0
807.8935141551933	0.27169999999999994	5.2356	1.0
807.5080320774869	0.2779999999999999	5.1728000000000005	1.0
807.6006084818841	0.2634999999999999	4.920533333333333	1.0
807.6006084818841	0.25549999999999995	4.7432	1.0
807.1201263089828	0.2653333333333332	4.903066666666667	1.0
806.1546263903656	0.2693999999999999	4.913466666666666	1.0
806.1546263903656	0.2473333333333332	4.601066666666667	1.0
805.9592008073367	0.2473333333333332	4.589333333333333	1.0
805.8688888884793	0.25056666666666655	4.754933333333334	1.0
805.8688888884793	0.25846666666666657	4.754933333333334	1.0
805.8688888884793	0.2448666666666666	4.479333333333334	1.0
804.7110229575351	0.23103333333333326	4.207066666666666	1.0
804.6212421419849	0.24553333333333321	4.343066666666667	1.0
804.6212421419849	0.24363333333333326	4.4896	1.0
804.6197016142452	0.25799999999999995	4.724666666666667	1.0
804.6211779917702	0.2562333333333332	4.759733333333333	1.0
804.6211779917702	0.24353333333333324	4.541333333333333	1.0
804.424823544892	0.24406666666666657	4.453333333333333	1.0
804.4224576694756	0.25273333333333325	4.512533333333334	1.0
804.4224576694756	0.25273333333333325	4.443333333333333	1.0
804.3282091604796	0.24083333333333323	4.144666666666667	1.0
804.233527074535	0.22903333333333326	4.144666666666667	1.0
804.2369100881847	0.22816666666666657	3.939066666666666	1.0
804.2369100881847	0.22323333333333323	3.8970666666666665	1.0
802.7025696880194	0.2328999999999999	4.028266666666667	1.0
802.700912186846	0.1296333333333333	1.4582666666666668	1.0
802.700912186846	0.13456666666666664	1.3849333333333333	1.0
