wavelength(nm)	flourescence PMT(V)	ti_saph Power (V)	Gain (V)
750.1680919598693	0.4366333333333334	3.707466666666666	1.0
750.1680919598693	0.4829666666666666	4.155733333333333	1.0
750.2494646406451	0.4909333333333332	4.2	1.0
750.2494646406451	0.4909333333333332	4.149466666666667	1.0
750.2494646406451	0.47409999999999997	4.149466666666667	1.0
750.2494415512001	0.4693999999999999	4.144	1.0
750.2494415512001	0.4751666666666666	4.089333333333334	1.0
750.2494415512001	0.4590999999999999	3.9319999999999995	1.0
750.9988490325215	0.4577333333333333	3.800933333333334	1.0
750.9988490325215	0.44149999999999995	3.8020000000000014	1.0
751.9247865053545	0.4474333333333332	3.8187999999999995	1.0
751.9247865053545	0.44853333333333323	3.9526666666666657	1.0
751.9247865053545	0.46903333333333325	4.145200000000001	1.0
752.0065780830605	0.46569999999999995	4.202	1.0
752.0065780830605	0.46569999999999995	4.1768	1.0
752.7556833705544	0.46893333333333337	3.9803999999999995	1.0
752.7556833705544	0.4486333333333333	3.9803999999999995	1.0
752.7556833705544	0.4369333333333333	3.872	1.0
752.8371446726799	0.43553333333333333	3.9102666666666663	1.0
752.8371446726799	0.4337666666666666	3.854266666666667	1.0
752.8371446726799	0.4418666666666667	3.93	1.0
753.0908137617116	0.4506333333333332	4.128400000000001	1.0
753.0908137617116	0.4653666666666666	4.2296000000000005	1.0
753.1719421153026	0.4714666666666666	4.294266666666667	1.0
753.1719421153026	0.48543333333333333	4.414533333333336	1.0
753.1719421153026	0.4788333333333333	4.44	1.0
753.5915002937294	0.4788333333333333	4.226666666666667	1.0
753.5915002937294	0.4591333333333333	4.1630666666666665	1.0
753.9255214625972	0.46080000000000004	4.1630666666666665	1.0
753.9255214625972	0.44649999999999995	4.115066666666666	1.0
753.9255214625972	0.4390333333333333	4.023066666666667	1.0
754.9399671583882	0.45899999999999996	4.188133333333334	1.0
754.9399671583882	0.45559999999999995	4.210666666666667	1.0
754.9399475115792	0.4565333333333333	4.245333333333333	1.0
754.9399475115792	0.4676666666666666	4.225733333333333	1.0
754.9399475115792	0.44609999999999994	4.098933333333334	1.0
754.9399475115792	0.43333333333333335	4.0712	1.0
754.9399475115792	0.43333333333333335	4.132	1.0
755.9543788918894	0.43079999999999996	4.110133333333334	1.0
755.9543788918894	0.44076666666666653	4.110133333333334	1.0
755.9543788918894	0.4378999999999999	4.081466666666667	1.0
756.1184018367896	0.4493	4.190533333333334	1.0
756.1184018367896	0.4503666666666665	4.298266666666668	1.0
756.1184018367896	0.4621999999999999	4.358400000000001	1.0
756.1186814320033	0.44333333333333325	4.347866666666667	1.0
756.1186814320033	0.43436666666666657	4.1858666666666675	1.0
756.79515657497	0.46169999999999994	4.356533333333333	1.0
756.79515657497	0.4561999999999999	4.368800000000001	1.0
756.79515657497	0.4532333333333332	4.382133333333335	1.0
756.79515657497	0.4532333333333332	4.420666666666667	1.0
756.79515657497	0.46119999999999983	4.488666666666667	1.0
757.899100211169	0.45566666666666655	4.488666666666667	1.0
757.899100211169	0.4525333333333333	4.398933333333333	1.0
757.899100211169	0.425	4.183333333333334	1.0
757.899100211169	0.4301333333333332	4.169866666666667	1.0
757.899100211169	0.4323666666666666	4.1724000000000006	1.0
758.6651461644688	0.43093333333333333	4.1564000000000005	1.0
758.6651461644688	0.4246	4.096933333333333	1.0
758.6651461644688	0.4159666666666666	4.020933333333334	1.0
758.6654268729892	0.4079999999999999	4.048533333333333	1.0
758.6654268729892	0.4145999999999999	4.069733333333334	1.0
759.0019654639375	0.4145999999999999	4.227333333333333	1.0
759.0019654639375	0.4443333333333333	4.281599999999999	1.0
759.0019654639375	0.4353666666666666	4.281599999999999	1.0
759.0044186806571	0.44519999999999993	4.296666666666667	1.0
759.0044186806571	0.44309999999999994	4.361066666666667	1.0
759.0052435810522	0.4342666666666666	4.349333333333334	1.0
759.0052435810522	0.44456666666666667	4.476266666666667	1.0
759.0052435810522	0.4343333333333333	4.415866666666666	1.0
761.9961945750717	0.4194	4.301733333333333	1.0
761.9961945750717	0.42476666666666657	4.245066666666666	1.0
761.9962257894886	0.41136666666666655	4.172933333333334	1.0
761.9962257894886	0.4150999999999999	4.255866666666668	1.0
761.9962257894886	0.4150999999999999	4.257733333333334	1.0
762.0778416544259	0.4300999999999999	4.274133333333333	1.0
762.0778416544259	0.42193333333333327	4.274133333333333	1.0
762.4232034585599	0.42419999999999997	4.300133333333334	1.0
762.4232034585599	0.42306666666666665	4.3668000000000005	1.0
762.4232034585599	0.43879999999999997	4.589066666666667	1.0
763.6245243239902	0.4498999999999999	4.7245333333333335	1.0
763.6245243239902	0.4650999999999999	4.855466666666667	1.0
763.6228921407736	0.46399999999999986	4.949466666666667	1.0
763.6228921407736	0.47006666666666663	5.0008	1.0
763.6228921407736	0.43649999999999994	4.553866666666667	1.0
763.9712716233178	0.4075	4.2	1.0
763.9712716233178	0.4075	4.199466666666666	1.0
763.9682497177128	0.4006666666666666	4.199866666666666	1.0
763.9682497177128	0.4150333333333333	4.199866666666666	1.0
763.9682497177128	0.40716666666666657	4.2	1.0
763.971319812103	0.40606666666666663	4.225866666666667	1.0
763.971319812103	0.4095	4.280799999999999	1.0
763.971319812103	0.42429999999999995	4.341333333333334	1.0
764.8308910881495	0.43136666666666656	4.584533333333334	1.0
764.8308910881495	0.44383333333333336	4.687333333333334	1.0
764.8295545012417	0.44606666666666667	4.743866666666667	1.0
764.8295545012417	0.4525	4.7708	1.0
764.8295545012417	0.4502999999999999	4.7488	1.0
764.9276752165813	0.4502999999999999	4.654933333333333	1.0
764.9276752165813	0.43026666666666663	4.654933333333333	1.0
764.9254546543871	0.42866666666666653	4.6374666666666675	1.0
764.9254546543871	0.43276666666666663	4.6424	1.0
764.9254546543871	0.4095666666666666	4.419466666666667	1.0
764.9254546543871	0.3989	4.200399999999999	1.0
764.9254546543871	0.39819999999999994	4.1984	1.0
765.3566266240889	0.45373333333333327	4.794933333333334	1.0
765.3566266240889	0.4211	4.3816	1.0
765.3566266240889	0.3992333333333333	4.208266666666667	1.0
765.4415481320335	0.4143999999999999	4.253733333333333	1.0
765.4415481320335	0.4143999999999999	4.357066666666667	1.0
765.7874852816473	0.4118333333333333	5.128933333333333	1.0
765.7874852816473	0.4775333333333333	5.128933333333333	1.0
765.7874852816473	0.4598666666666666	4.9492	1.0
765.8730359306701	0.4294666666666666	4.611066666666667	1.0
765.8730359306701	0.43876666666666664	4.604133333333334	1.0
766.9177398340229	0.42449999999999993	4.577733333333334	1.0
766.9177398340229	0.4317666666666666	4.600266666666666	1.0
766.9177398340229	0.43509999999999993	4.6	1.0
766.9177108676997	0.42463333333333325	4.600266666666666	1.0
766.9177108676997	0.4274999999999999	4.604133333333333	1.0
767.0416708256888	0.44149999999999995	4.698533333333334	1.0
767.0416708256888	0.44149999999999995	4.909599999999999	1.0
767.0416708256888	0.45559999999999995	4.909599999999999	1.0
767.7837679369184	0.47416666666666657	5.228	1.0
767.7837679369184	0.4620333333333332	5.0256	1.0
767.7837679369184	0.4435333333333332	4.822666666666667	1.0
767.7871433504416	0.43913333333333326	4.7984	1.0
767.7871433504416	0.44349999999999984	4.826133333333333	1.0
768.0471587746649	0.44339999999999996	4.717866666666667	1.0
768.0471587746649	0.4186666666666666	4.582800000000001	1.0
768.0471587746649	0.43833333333333335	4.704666666666668	1.0
768.1349301287751	0.44106666666666666	4.76	1.0
768.1349301287751	0.44106666666666666	4.668666666666667	1.0
768.8357013155037	0.4272666666666667	4.668666666666667	1.0
768.8357013155037	0.3979999999999999	4.470933333333334	1.0
768.8357013155037	0.44366666666666665	4.842266666666666	1.0
768.8357013155037	0.4548	4.989466666666666	1.0
768.8357013155037	0.45546666666666663	5.108533333333333	1.0
768.9195322334804	0.4649	5.154666666666667	1.0
768.9195322334804	0.4523333333333333	5.014666666666667	1.0
768.9195322334804	0.42216666666666663	4.671733333333333	1.0
770.0550581406146	0.43333333333333324	4.738666666666666	1.0
770.0550581406146	0.4432999999999999	5.004533333333334	1.0
770.143753405431	0.4671999999999999	5.165866666666667	1.0
770.143753405431	0.4671999999999999	5.087066666666666	1.0
770.143753405431	0.4470666666666666	5.087066666666666	1.0
770.8489366412384	0.44803333333333323	5.095866666666667	1.0
770.8489366412384	0.45086666666666664	5.047466666666668	1.0
770.8481383261936	0.4492666666666666	5.1113333333333335	1.0
770.8481383261936	0.4513	5.074933333333333	1.0
770.8481383261936	0.4431333333333332	4.8448	1.0
771.115036883869	0.4178666666666666	4.598	1.0
771.115036883869	0.4321	4.959466666666668	1.0
771.6375218753641	0.4188333333333333	4.768000000000001	1.0
771.6375218753641	0.4107333333333333	4.613866666666667	1.0
771.6375218753641	0.4079999999999999	4.600133333333333	1.0
771.9052391579315	0.4079999999999999	4.6004	1.0
771.9052391579315	0.4131666666666666	4.6004	1.0
771.9896670471143	0.4138333333333333	4.727600000000001	1.0
771.9896670471143	0.44599999999999984	5.236133333333333	1.0
771.9896670471143	0.4607333333333332	5.242133333333333	1.0
773.0540974080292	0.42579999999999996	4.8044	1.0
773.0540974080292	0.41576666666666656	4.809466666666667	1.0
773.8484626280174	0.4342666666666666	5.0944	1.0
773.8484626280174	0.4418666666666666	5.193066666666667	1.0
773.8484626280174	0.45423333333333327	5.360799999999999	1.0
773.848007356094	0.4579999999999999	5.3956	1.0
773.848007356094	0.4579999999999999	5.371333333333333	1.0
773.848007356094	0.46163333333333334	5.4105333333333325	1.0
773.9338037987562	0.4649333333333332	5.4105333333333325	1.0
773.9338037987562	0.4661666666666667	5.403333333333333	1.0
774.2904089685102	0.42549999999999993	4.818933333333333	1.0
774.2904089685102	0.41966666666666663	4.748400000000001	1.0
774.2904089685102	0.43753333333333333	4.966666666666667	1.0
774.2904089685102	0.44056666666666655	5.0868	1.0
774.2904089685102	0.41319999999999996	4.892533333333334	1.0
775.087697179428	0.4181666666666666	4.9048	1.0
775.087697179428	0.46313333333333323	5.374399999999999	1.0
775.087697179428	0.46763333333333323	5.483466666666667	1.0
775.0874176340972	0.46763333333333323	5.5393333333333326	1.0
775.0874176340972	0.4815666666666666	5.260266666666666	1.0
775.0874176340972	0.44703333333333317	5.260266666666666	1.0
775.0874176340972	0.4246666666666666	4.977733333333334	1.0
775.0874176340972	0.43116666666666653	4.9985333333333335	1.0
776.6038856247213	0.4505666666666665	5.292000000000001	1.0
776.6038856247213	0.44883333333333325	5.3435999999999995	1.0
777.0476499530682	0.4429666666666666	5.260133333333333	1.0
777.0476499530682	0.46843333333333326	5.348533333333333	1.0
777.0476499530682	0.4834333333333332	5.721333333333334	1.0
777.0460726814265	0.47290000000000004	5.7696000000000005	1.0
777.0460726814265	0.4867333333333333	5.738533333333333	1.0
777.320464351783	0.4867333333333333	5.6204	1.0
777.320464351783	0.4754333333333333	5.494800000000001	1.0
777.320464351783	0.46029999999999993	5.494800000000001	1.0
777.765239191615	0.4489666666666667	5.3476	1.0
777.765239191615	0.47	5.5652	1.0
778.1221965687776	0.4343666666666667	5.229866666666667	1.0
778.1221965687776	0.4260999999999999	5.078666666666667	1.0
778.1221965687776	0.4347666666666667	5.077333333333335	1.0
778.2104673439784	0.43653333333333316	5.077733333333334	1.0
778.2104673439784	0.49606666666666654	5.7224	1.0
779.3759776277236	0.49429999999999996	5.9105333333333325	1.0
779.3759776277236	0.46863333333333324	5.492266666666666	1.0
779.3759776277236	0.46863333333333324	5.239333333333334	1.0
779.6703750576614	0.4477	5.239333333333334	1.0
779.6703750576614	0.4641333333333333	5.4568	1.0
779.6703750576614	0.4699666666666666	5.507466666666666	1.0
780.0109525255284	0.4450999999999999	5.130400000000001	1.0
780.0109525255284	0.4526333333333332	5.276	1.0
780.3702594725487	0.4769	5.534	1.0
780.3702594725487	0.5110666666666666	5.874133333333333	1.0
780.3702594725487	0.5000666666666667	5.785466666666667	1.0
780.4578112408835	0.4867999999999999	5.548666666666667	1.0
780.4578112408835	0.46329999999999993	5.479866666666667	1.0
780.8190484082713	0.46329999999999993	5.435733333333334	1.0
780.8190484082713	0.47449999999999987	5.3392	1.0
780.8190484082713	0.46513333333333323	5.3392	1.0
781.1850079307789	0.4618	5.2292	1.0
781.1850079307789	0.4499999999999999	5.150533333333334	1.0
781.5466323963471	0.4486999999999999	5.151466666666667	1.0
781.5466323963471	0.4693666666666666	5.294933333333334	1.0
781.5466323963471	0.4997333333333332	5.760666666666667	1.0
782.4465854806143	0.5025666666666666	5.6072	1.0
782.4465854806143	0.46873333333333317	5.2754666666666665	1.0
782.8130628029667	0.47826666666666656	5.326133333333333	1.0
782.8130628029667	0.5091333333333332	5.7001333333333335	1.0
782.8130628029667	0.5091333333333332	5.2372	1.0
783.3531382968099	0.475	5.2863999999999995	1.0
783.3531382968099	0.4728666666666666	5.2863999999999995	1.0
783.3531382968099	0.5073666666666666	5.658133333333334	1.0
783.5402369933089	0.5409666666666666	5.964933333333334	1.0
783.5402369933089	0.5628	6.266533333333333	1.0
783.5402007003769	0.5667999999999999	6.253333333333333	1.0
783.5402007003769	0.5095333333333333	5.737466666666666	1.0
783.5402007003769	0.5079333333333333	5.557866666666666	1.0
784.3164210694318	0.4894333333333333	5.439066666666666	1.0
784.3164210694318	0.5223333333333333	5.548933333333332	1.0
784.4422895160408	0.5050666666666666	5.429733333333334	1.0
784.4422895160408	0.5050666666666666	5.235333333333333	1.0
784.4422895160408	0.47289999999999993	5.235333333333333	1.0
784.4433382020443	0.47596666666666665	5.175866666666668	1.0
784.4433382020443	0.48653333333333326	5.236000000000001	1.0
784.4433382020443	0.5160999999999999	5.741466666666667	1.0
784.81104330851	0.5285333333333333	5.697066666666666	1.0
784.81104330851	0.5514333333333332	5.997599999999999	1.0
784.81104330851	0.5440333333333333	5.9988	1.0
784.81104330851	0.5194666666666666	5.403066666666666	1.0
784.81104330851	0.5404333333333332	5.649333333333333	1.0
784.81104330851	0.5770666666666666	5.917333333333333	1.0
784.81104330851	0.5770666666666666	5.678266666666667	1.0
786.3235016109805	0.5521999999999999	5.435466666666667	1.0
786.3235016109805	0.5359666666666666	5.435466666666667	1.0
786.3235016109805	0.5357333333333333	5.434666666666667	1.0
786.7305506228086	0.5628	5.906666666666666	1.0
786.7305506228086	0.6142333333333333	6.294133333333334	1.0
786.7314973464352	0.6151333333333332	6.350533333333335	1.0
786.7314973464352	0.6202666666666666	6.400000000000001	1.0
786.7314973464352	0.6250999999999999	6.398800000000001	1.0
787.0963400006731	0.5813999999999999	5.765066666666667	1.0
787.0963400006731	0.5612666666666666	5.462533333333333	1.0
787.0963400006731	0.5638999999999998	5.516000000000001	1.0
787.6459177138963	0.5638999999999998	5.462666666666667	1.0
787.6459177138963	0.5606333333333333	5.402533333333333	1.0
787.9251474332851	0.5534333333333332	5.402533333333333	1.0
787.9251474332851	0.5662999999999999	5.524266666666666	1.0
787.9251474332851	0.6374333333333332	6.1433333333333335	1.0
788.0135101086695	0.6306999999999999	6.238533333333333	1.0
788.0135101086695	0.6298999999999999	6.0748	1.0
789.2115630272879	0.6357999999999999	5.849866666666666	1.0
789.2115630272879	0.6729333333333333	5.997333333333334	1.0
789.2115630272879	0.6882333333333333	6.137466666666667	1.0
789.48864167111	0.6950999999999999	5.952933333333334	1.0
789.48864167111	0.6950999999999999	5.959466666666667	1.0
789.48864167111	0.7094666666666666	6.229466666666665	1.0
789.9888225965345	0.7563999999999999	6.229466666666665	1.0
789.9888225965345	0.7649666666666666	6.251333333333333	1.0
789.9512387747875	0.7593666666666666	6.253733333333333	1.0
789.9512387747875	0.7314666666666667	5.927733333333332	1.0
789.9512387747875	0.7775	5.881733333333332	1.0
787.6444754100916	0.5988333333333332	5.7308	1.0
787.6444754100916	0.5579000000000001	5.536666666666666	1.0
787.5579444579487	0.5675333333333332	5.719066666666667	1.0
787.5579444579487	0.5855666666666666	5.7649333333333335	1.0
786.7305798547685	0.5656666666666667	5.477333333333333	1.0
786.7305798547685	0.5807666666666667	5.9916	1.0
786.7305798547685	0.6327999999999999	6.391200000000002	1.0
786.729590274474	0.6280666666666666	6.461733333333334	1.0
786.729590274474	0.6309333333333332	6.4944	1.0
786.3655495648211	0.6309333333333332	6.447466666666667	1.0
786.3655495648211	0.6196999999999999	6.447466666666667	1.0
786.3655495648211	0.5553333333333332	5.653733333333333	1.0
786.3637666820351	0.5454333333333333	5.591733333333332	1.0
786.3637666820351	0.5656666666666667	5.642133333333333	1.0
786.3637666820351	0.5310666666666667	5.5048	1.0
786.3637666820351	0.5256333333333333	5.4508	1.0
786.3637666820351	0.5380666666666666	5.715466666666668	1.0
784.810087842631	0.5684666666666666	6.2032	1.0
784.810087842631	0.5661333333333333	6.1436	1.0
784.810087842631	0.5086333333333333	5.4832	1.0
784.5329631412737	0.5086333333333333	5.400933333333333	1.0
784.5329631412737	0.49543333333333334	5.410933333333333	1.0
784.4503554362706	0.5064	5.410933333333333	1.0
784.4503554362706	0.5016666666666666	5.3427999999999995	1.0
784.4503554362706	0.5224333333333332	5.669066666666666	1.0
784.357447306861	0.5509666666666665	5.9323999999999995	1.0
784.357447306861	0.5300666666666666	5.802666666666666	1.0
784.357447306861	0.5306333333333332	5.809066666666666	1.0
783.628114692424	0.5331	5.954133333333332	1.0
783.628114692424	0.5300666666666666	5.8894666666666655	1.0
783.2622513808356	0.5268999999999999	5.8564	1.0
783.2622513808356	0.5239999999999999	5.838133333333333	1.0
783.2622513808356	0.5239999999999999	5.665066666666666	1.0
783.2632249358428	0.5043333333333332	5.700266666666667	1.0
783.2632249358428	0.5018666666666666	5.700266666666667	1.0
782.7227378736892	0.5072999999999999	5.622	1.0
782.7227378736892	0.4982666666666665	5.338266666666666	1.0
782.7227378736892	0.4551333333333332	5.1112	1.0
782.7227378736892	0.4742333333333333	5.258	1.0
782.7227378736892	0.5045999999999999	5.733466666666668	1.0
782.7227378736892	0.46683333333333316	5.292933333333334	1.0
781.3613474504217	0.4627666666666666	5.2616000000000005	1.0
781.3613474504217	0.4595333333333333	5.279866666666667	1.0
781.2700987490159	0.46059999999999995	5.322933333333333	1.0
781.2700987490159	0.46059999999999995	5.400266666666666	1.0
781.2700987490159	0.47339999999999993	5.400266666666666	1.0
780.823279753309	0.48183333333333317	5.4883999999999995	1.0
780.823279753309	0.46369999999999983	5.340533333333334	1.0
780.4573109056332	0.47913333333333324	5.6756	1.0
780.4573109056332	0.49373333333333314	5.780266666666666	1.0
780.4573109056332	0.5000333333333333	5.600266666666666	1.0
780.1861830589172	0.47303333333333325	5.401066666666666	1.0
780.1861830589172	0.4822333333333333	5.4204	1.0
780.1861830589172	0.48909999999999987	5.554666666666666	1.0
779.8246693728313	0.4917333333333333	5.6076	1.0
779.8246693728313	0.4917333333333333	5.728133333333333	1.0
779.3790370864059	0.4865666666666666	5.2392	1.0
779.3790370864059	0.45109999999999995	5.2392	1.0
779.3790370864059	0.4837666666666667	5.6192	1.0
778.3962005551698	0.4570999999999999	5.338399999999999	1.0
778.3962005551698	0.44613333333333327	5.179466666666666	1.0
778.1239615863508	0.44326666666666653	5.083733333333334	1.0
778.1239615863508	0.46653333333333324	5.401199999999999	1.0
778.1239615863508	0.4618	5.541333333333332	1.0
778.1238901356164	0.4670333333333332	5.520133333333333	1.0
778.1238901356164	0.46806666666666663	5.500933333333332	1.0
778.1238901356164	0.4502999999999999	5.3132	1.0
777.3212344399434	0.4502999999999999	5.656533333333334	1.0
777.3212344399434	0.47886666666666655	5.768	1.0
777.321146702791	0.4865	5.768	1.0
777.321146702791	0.45796666666666663	5.523733333333333	1.0
777.321146702791	0.44096666666666656	5.297333333333333	1.0
776.9617505675295	0.4496999999999999	5.132533333333333	1.0
776.9617505675295	0.4236999999999999	4.924666666666666	1.0
776.959742886389	0.4222999999999999	4.892933333333334	1.0
776.959742886389	0.43060000000000004	4.968933333333333	1.0
776.959742886389	0.4295666666666666	5.0629333333333335	1.0
776.959742886389	0.4322666666666666	4.943866666666666	1.0
776.959742886389	0.4322666666666666	5.320399999999999	1.0
776.959742886389	0.4573333333333333	5.631333333333332	1.0
776.959742886389	0.4797666666666666	5.631333333333332	1.0
776.959742886389	0.4373666666666666	5.159066666666666	1.0
775.0017215126521	0.4320666666666666	5.184133333333333	1.0
775.0017215126521	0.44606666666666667	5.246933333333333	1.0
775.0017215126521	0.4451333333333333	5.387733333333332	1.0
775.0016761706877	0.4545333333333332	5.399733333333333	1.0
775.0016761706877	0.4540333333333333	5.3648	1.0
774.5590291588496	0.44830000000000003	5.207066666666666	1.0
774.5590291588496	0.43859999999999993	5.039733333333333	1.0
774.5590291588496	0.4269	5.192666666666667	1.0
774.2038493259143	0.4269	5.393999999999999	1.0
774.2038493259143	0.4748999999999999	5.490266666666667	1.0
773.9373990601923	0.46903333333333325	5.490266666666667	1.0
773.9373990601923	0.4603333333333332	5.4752	1.0
773.9373990601923	0.46336666666666665	5.481333333333334	1.0
773.7625568209814	0.4496333333333333	5.125333333333333	1.0
773.7625568209814	0.4292333333333333	4.9416	1.0
773.7625568209814	0.4240666666666666	4.8693333333333335	1.0
773.1370332805355	0.41166666666666657	4.740533333333333	1.0
773.1370332805355	0.44076666666666653	5.072666666666667	1.0
771.9913645198974	0.43549999999999994	4.831333333333333	1.0
771.9913645198974	0.43549999999999994	4.630133333333333	1.0
771.9913645198974	0.40343333333333325	4.6466666666666665	1.0
771.9057542340995	0.4071333333333333	4.6466666666666665	1.0
771.9057542340995	0.43579999999999985	4.984666666666667	1.0
771.9057542340995	0.44666666666666655	5.0804	1.0
771.6376748160133	0.44189999999999996	5.066933333333333	1.0
771.6376748160133	0.4431999999999999	5.045466666666666	1.0
771.1154411963383	0.4337	4.809866666666667	1.0
771.1154411963383	0.4549666666666666	5.110666666666668	1.0
771.1154411963383	0.4630999999999999	5.180266666666667	1.0
770.8482507820369	0.4406999999999999	5.141066666666667	1.0
770.8482507820369	0.45179999999999987	5.116266666666667	1.0
770.8482507820369	0.45179999999999987	4.950666666666667	1.0
770.8482507820369	0.44643333333333324	4.891866666666666	1.0
770.8482507820369	0.4379666666666666	4.891866666666666	1.0
770.1409884671623	0.47056666666666663	5.2867999999999995	1.0
770.1409884671623	0.42653333333333326	4.704	1.0
770.1409884671623	0.3931666666666666	4.422666666666667	1.0
769.97364282545	0.4175333333333332	4.6824	1.0
769.97364282545	0.45846666666666663	5.208933333333333	1.0
768.9196342450844	0.4059999999999999	4.445733333333334	1.0
768.9196342450844	0.4027333333333332	4.438533333333335	1.0
768.9196342450844	0.4026999999999999	4.479466666666667	1.0
768.9173272443306	0.4198	4.662933333333334	1.0
768.9173272443306	0.4198	4.949466666666666	1.0
768.1332223805102	0.4519999999999999	4.924266666666666	1.0
768.1332223805102	0.4486333333333333	4.924266666666666	1.0
768.1332223805102	0.44946666666666657	4.906533333333334	1.0
768.0480469644853	0.44373333333333337	4.862666666666667	1.0
768.0480469644853	0.4467666666666666	4.837199999999999	1.0
768.0480469644853	0.43639999999999984	4.714000000000001	1.0
767.7843190674967	0.4294333333333333	4.683599999999999	1.0
767.7843190674967	0.4345666666666666	4.667866666666667	1.0
767.7034735741312	0.42623333333333324	4.622133333333334	1.0
767.7034735741312	0.42669999999999997	4.596000000000001	1.0
767.7034735741312	0.41553333333333325	4.535866666666667	1.0
766.9211469182281	0.41553333333333325	4.8364	1.0
766.9211469182281	0.44683333333333325	4.918	1.0
766.9211469182281	0.45296666666666663	4.918	1.0
766.9211570221076	0.4527333333333333	4.905866666666666	1.0
766.9211570221076	0.44933333333333325	4.874	1.0
765.8713321701897	0.3987333333333333	4.278133333333334	1.0
765.8713321701897	0.39686666666666665	4.1294666666666675	1.0
765.8713321701897	0.4195999999999999	4.5465333333333335	1.0
765.9893150765481	0.4655999999999999	4.8608	1.0
765.9893150765481	0.4534666666666665	4.804666666666666	1.0
765.4414883774687	0.4482999999999999	4.7264	1.0
765.4414883774687	0.4322666666666666	4.606266666666667	1.0
765.4414883774687	0.4322666666666666	4.612666666666668	1.0
765.0102915004081	0.43596666666666656	4.754533333333334	1.0
765.0102915004081	0.44376666666666664	4.754533333333334	1.0
765.0102915004081	0.4473	4.76	1.0
765.0103021593042	0.4532999999999999	4.76	1.0
765.0103021593042	0.44549999999999995	4.7485333333333335	1.0
764.9287795863094	0.4471999999999999	4.690400000000001	1.0
764.9287795863094	0.4534666666666665	4.8394666666666675	1.0
764.9287795863094	0.44093333333333323	4.679866666666666	1.0
764.8304714058689	0.4345	4.538400000000001	1.0
764.8304714058689	0.43103333333333327	4.524400000000001	1.0
764.8304714058689	0.42113333333333325	4.3952	1.0
764.4030038007727	0.42113333333333325	4.2026666666666666	1.0
764.4030038007727	0.41363333333333324	4.197333333333334	1.0
763.9724768604715	0.40303333333333324	4.197333333333334	1.0
763.9724768604715	0.41553333333333325	4.3044	1.0
763.9724768604715	0.4188333333333333	4.337066666666667	1.0
763.972528449371	0.41153333333333325	4.501066666666667	1.0
763.972528449371	0.43879999999999997	4.6248000000000005	1.0
763.9734347463809	0.45576666666666665	4.757466666666668	1.0
763.9734347463809	0.4621666666666666	4.760933333333334	1.0
763.9734347463809	0.4475333333333333	4.76	1.0
763.6238672557488	0.44606666666666667	4.652933333333333	1.0
763.6238672557488	0.4273666666666666	4.424133333333334	1.0
763.6238672557488	0.4273666666666666	4.269066666666666	1.0
763.6246636465274	0.41096666666666665	4.269066666666666	1.0
763.6246636465274	0.4130999999999999	4.168	1.0
762.4235440718808	0.4038666666666666	4.0541333333333345	1.0
762.4235440718808	0.3882666666666666	4.000133333333333	1.0
762.4235440718808	0.44869999999999993	4.581333333333333	1.0
762.0802530430178	0.46626666666666666	4.831333333333333	1.0
762.0802530430178	0.4522999999999999	4.744266666666666	1.0
762.0802530430178	0.4126333333333333	4.133333333333334	1.0
761.9956369554335	0.3843999999999999	3.8665333333333334	1.0
761.9956369554335	0.40366666666666656	4.1172	1.0
761.9956369554335	0.40366666666666656	4.398266666666667	1.0
761.9956369554335	0.4417	4.075866666666667	1.0
761.9956369554335	0.4105999999999999	4.075866666666667	1.0
759.0061760699324	0.43106666666666665	4.179466666666667	1.0
759.0061760699324	0.4310999999999999	4.177066666666667	1.0
759.0061760699324	0.3959666666666666	3.8134666666666663	1.0
759.0029978126917	0.39333333333333326	3.827600000000001	1.0
759.0029978126917	0.44393333333333324	4.174533333333333	1.0
758.6606942817901	0.4521999999999999	4.453733333333335	1.0
758.6606942817901	0.45366666666666655	4.4614666666666665	1.0
758.6606942817901	0.44056666666666655	4.1752	1.0
758.6606942817901	0.4091333333333333	4.002	1.0
758.6606942817901	0.4091333333333333	4.016533333333333	1.0
757.8999466460846	0.4252999999999999	4.016533333333333	1.0
757.8999466460846	0.42649999999999993	4.059333333333334	1.0
757.8999466460846	0.4328666666666666	4.123066666666667	1.0
757.8166821090565	0.4298666666666666	4.147466666666666	1.0
757.8166821090565	0.43849999999999995	4.2092	1.0
757.8166821090565	0.4497333333333333	4.358933333333335	1.0
756.7978317589598	0.4771999999999999	4.558533333333334	1.0
756.7978317589598	0.4619333333333333	4.4208	1.0
756.116615002203	0.4373999999999999	4.1956	1.0
756.116615002203	0.4735666666666665	4.4985333333333335	1.0
756.116615002203	0.4735666666666665	4.547066666666666	1.0
756.1165975305648	0.4844999999999999	4.4967999999999995	1.0
756.1165975305648	0.46933333333333327	4.4967999999999995	1.0
756.1165975305648	0.45399999999999996	4.309066666666667	1.0
756.1165975305648	0.43883333333333324	4.0184	1.0
756.1165975305648	0.42169999999999996	3.909333333333333	1.0
755.0218760230297	0.41713333333333336	3.9256	1.0
755.0218760230297	0.4442	4.216666666666667	1.0
755.0218760230297	0.4395999999999999	4.184266666666668	1.0
754.9402668176996	0.43846666666666656	4.119066666666667	1.0
754.9402668176996	0.44946666666666657	4.193066666666667	1.0
754.9402668176996	0.4548333333333333	4.149733333333334	1.0
753.9280517428278	0.4548333333333333	4.109866666666667	1.0
753.9280517428278	0.44463333333333327	4.234	1.0
753.5097276219326	0.46333333333333326	4.234	1.0
753.5097276219326	0.44133333333333324	4.026400000000001	1.0
753.5097276219326	0.4601333333333332	4.1470666666666665	1.0
753.1723081351801	0.4971999999999999	4.5389333333333335	1.0
753.1723081351801	0.5044	4.539066666666667	1.0
753.1723081351801	0.48926666666666657	4.374533333333334	1.0
753.0088322703072	0.44376666666666664	3.9225333333333334	1.0
753.0088322703072	0.44339999999999996	3.885333333333334	1.0
753.0088322703072	0.45376666666666654	3.9390666666666676	1.0
753.0088322703072	0.4816333333333332	4.2951999999999995	1.0
753.0088322703072	0.4816333333333332	4.069066666666668	1.0
752.0030762925627	0.46116666666666656	4.058800000000001	1.0
752.0030762925627	0.4567666666666666	4.058800000000001	1.0
752.0030762925627	0.4476999999999998	4.0228	1.0
750.9603146606685	0.4646666666666666	4.0552	1.0
750.9603146606685	0.46609999999999996	4.041866666666667	1.0
750.9178169818	0.47123333333333317	4.176533333333333	1.0
750.9178169818	0.4772333333333332	4.1917333333333335	1.0
750.9178169818	0.47596666666666654	4.192399999999999	1.0
750.248429318808	0.49163333333333326	4.1903999999999995	1.0
750.248429318808	0.46636666666666654	3.9801333333333333	1.0
750.248429318808	0.4548666666666666	3.8771999999999993	1.0
750.1718946165266	0.4548666666666666	3.8516	1.0
750.1718946165266	0.4621999999999999	3.8516	1.0
750.1718946165266	0.45059999999999995	3.8695999999999997	1.0
