wavelength(nm)	flourescence PMT(V)	ti_saph Power (V)	Gain (V)
750.1710561141919	0.47553333333333325	4.097733333333334	1.0
750.1710561141919	0.4792999999999999	4.199866666666667	1.0
750.1710561141919	0.4922333333333333	4.223066666666667	1.0
750.1740920561691	0.4825999999999999	4.228666666666666	1.0
750.1740920561691	0.4825999999999999	4.231866666666667	1.0
750.1740920561691	0.4873333333333333	4.231866666666667	1.0
750.1740920561691	0.47919999999999996	4.198533333333333	1.0
750.1740920561691	0.4844666666666666	4.236400000000001	1.0
750.9992222133355	0.49339999999999995	4.187866666666667	1.0
750.9992222133355	0.4648333333333333	4.010666666666666	1.0
750.9992222133355	0.45286666666666653	3.9650666666666665	1.0
752.0380885782656	0.4598333333333333	4.122800000000001	1.0
752.0380885782656	0.4716666666666667	4.234266666666667	1.0
752.0380885782656	0.45156666666666656	4.091866666666666	1.0
752.7558227931587	0.4620666666666667	4.0676000000000005	1.0
752.7558227931587	0.4620666666666667	4.229066666666667	1.0
752.7558227931587	0.4574999999999999	4.263333333333334	1.0
752.7570221146524	0.4583333333333333	4.263333333333334	1.0
752.7570221146524	0.4397333333333332	4.063866666666666	1.0
752.7570221146524	0.45559999999999995	4.012666666666666	1.0
753.0917134240041	0.4356999999999999	3.925333333333333	1.0
753.0917134240041	0.4525666666666666	4.099866666666667	1.0
753.0917134240041	0.4719	4.3364	1.0
753.1738869374087	0.47896666666666654	4.490399999999999	1.0
753.1738869374087	0.4975666666666666	4.5952	1.0
753.1738869374087	0.4508666666666665	4.149866666666667	1.0
753.7644601726871	0.4508666666666665	4.247066666666667	1.0
753.7644601726871	0.45109999999999995	4.314266666666667	1.0
753.7644601726871	0.4722333333333333	4.314266666666667	1.0
754.684631323591	0.44549999999999995	4.167466666666667	1.0
754.684631323591	0.45106666666666667	4.235733333333333	1.0
754.684631323591	0.45779999999999993	4.308133333333333	1.0
754.9403028748217	0.4699666666666666	4.366533333333335	1.0
754.9403028748217	0.4645999999999999	4.384400000000001	1.0
754.9403028748217	0.4423666666666666	4.261466666666666	1.0
754.9403028748217	0.4346999999999999	4.075066666666666	1.0
754.9403028748217	0.41516666666666663	3.9766666666666666	1.0
754.9403028748217	0.43703333333333316	4.003866666666667	1.0
755.9545181473007	0.43703333333333316	4.0316	1.0
755.9545181473007	0.4216666666666666	4.087733333333333	1.0
756.0383006909137	0.4343333333333333	4.087733333333333	1.0
756.0383006909137	0.44856666666666667	4.306	1.0
756.0383006909137	0.4554999999999999	4.353733333333333	1.0
756.4581978665174	0.45173333333333326	4.439466666666667	1.0
756.4581978665174	0.42573333333333324	4.0527999999999995	1.0
756.4581978665174	0.4419333333333333	4.300400000000001	1.0
756.8000914441025	0.4647666666666665	4.480666666666667	1.0
756.8000914441025	0.4627666666666666	4.505466666666666	1.0
756.8000914441025	0.45393333333333324	4.471066666666667	1.0
757.8202554273576	0.46113333333333323	4.438266666666667	1.0
757.8202554273576	0.46113333333333323	4.513333333333334	1.0
757.8202554273576	0.4616333333333332	4.513333333333334	1.0
757.8202554273576	0.4563666666666666	4.5196000000000005	1.0
757.8202554273576	0.45326666666666654	4.409066666666666	1.0
757.8202554273576	0.44633333333333325	4.3788	1.0
758.3341053534314	0.44009999999999994	4.326533333333334	1.0
758.3341053534314	0.42413333333333325	4.152266666666667	1.0
758.3341053534314	0.4167333333333333	4.105466666666667	1.0
758.9220949907009	0.4306333333333333	4.117466666666667	1.0
758.9220949907009	0.41576666666666656	4.1708	1.0
758.9220949907009	0.4169999999999999	4.068266666666667	1.0
759.004675373203	0.4169999999999999	4.2588	1.0
759.004675373203	0.4350333333333333	4.414000000000001	1.0
759.004675373203	0.4418333333333332	4.414000000000001	1.0
759.0054616738365	0.4234999999999998	4.44	1.0
759.0054616738365	0.4452333333333333	4.4766666666666675	1.0
759.0054616738365	0.44116666666666654	4.557866666666667	1.0
761.9140438991118	0.4321666666666666	4.531733333333333	1.0
761.9140438991118	0.4575666666666666	4.5044	1.0
761.9140438991118	0.4270666666666666	4.324533333333334	1.0
761.9965012501314	0.4120999999999999	4.290666666666666	1.0
761.9965012501314	0.4300999999999999	4.3267999999999995	1.0
761.9965012501314	0.41596666666666665	4.407466666666667	1.0
762.0787146007024	0.41596666666666665	4.411600000000002	1.0
762.0787146007024	0.4208666666666666	4.411600000000002	1.0
762.0787146007024	0.4224666666666666	4.437200000000001	1.0
762.4249932494764	0.4249333333333333	4.396400000000001	1.0
762.4249932494764	0.4501333333333332	4.630800000000001	1.0
762.4249932494764	0.46279999999999993	4.7914666666666665	1.0
763.6247703939258	0.4709999999999999	4.923066666666666	1.0
763.6247703939258	0.47419999999999995	5.080266666666668	1.0
763.6247703939258	0.4776333333333332	5.1332	1.0
763.9724257340137	0.42479999999999996	4.419200000000001	1.0
763.9724257340137	0.4051666666666666	4.208666666666667	1.0
763.9724257340137	0.4051666666666666	4.2304	1.0
763.9709609068759	0.41573333333333323	4.266133333333333	1.0
763.9709609068759	0.40259999999999996	4.266133333333333	1.0
763.9709609068759	0.42379999999999995	4.280666666666666	1.0
763.9748142527163	0.4172999999999999	4.358666666666668	1.0
763.9748142527163	0.4126333333333332	4.380000000000001	1.0
763.9748142527163	0.4357666666666665	4.480533333333334	1.0
763.9748142527163	0.4483333333333333	4.681066666666667	1.0
763.9748142527163	0.4557999999999999	4.7792	1.0
763.9748142527163	0.45126666666666665	4.8129333333333335	1.0
764.9280177365416	0.4517666666666666	4.7838666666666665	1.0
764.9280177365416	0.4517666666666666	4.7516	1.0
764.9280177365416	0.4449999999999999	4.7645333333333335	1.0
764.927840189152	0.4443666666666666	4.7645333333333335	1.0
764.927840189152	0.4475999999999999	4.814933333333333	1.0
764.927840189152	0.4475333333333333	4.713333333333333	1.0
765.0100944836427	0.40126666666666655	4.242133333333333	1.0
765.0100944836427	0.3784666666666666	4.128533333333334	1.0
765.0100944836427	0.40546666666666664	4.222266666666667	1.0
765.3574913072118	0.4599333333333333	5.040133333333333	1.0
765.3574913072118	0.42386666666666656	4.574933333333333	1.0
765.3574913072118	0.41363333333333324	4.446933333333333	1.0
765.5263636443335	0.409	4.399066666666667	1.0
765.5263636443335	0.409	4.820666666666667	1.0
765.5263636443335	0.4445666666666665	4.820666666666667	1.0
765.7910917700857	0.4731666666666666	5.234533333333333	1.0
765.7910917700857	0.48686666666666656	5.326933333333333	1.0
765.7910917700857	0.4807666666666666	5.1224	1.0
766.9208821330377	0.44576666666666653	4.776666666666666	1.0
766.9208821330377	0.4357999999999999	4.6532	1.0
766.9208821330377	0.43073333333333325	4.6008000000000004	1.0
766.9172236477457	0.42396666666666655	4.596000000000001	1.0
766.9172236477457	0.41563333333333324	4.517066666666667	1.0
766.9172236477457	0.4065	4.440133333333334	1.0
766.9203729889684	0.4048666666666666	4.439466666666667	1.0
766.9203729889684	0.4048666666666666	5.1778666666666675	1.0
766.9203729889684	0.4715666666666666	5.2444	1.0
767.6992322104884	0.4683999999999999	5.2444	1.0
767.6992322104884	0.4691999999999999	5.1716	1.0
767.6992322104884	0.45433333333333337	5.080133333333333	1.0
767.787080733658	0.4428666666666665	4.9416	1.0
767.787080733658	0.4109999999999999	4.541733333333333	1.0
767.787080733658	0.4167666666666666	4.519733333333333	1.0
768.0503196553882	0.41879999999999995	4.5488	1.0
768.0503196553882	0.4208666666666666	4.585333333333333	1.0
768.0503196553882	0.4296666666666666	4.823333333333333	1.0
768.8385316982803	0.44406666666666655	4.947466666666667	1.0
768.8385316982803	0.44406666666666655	4.9796	1.0
768.8385316982803	0.4471999999999999	4.9796	1.0
768.8385316982803	0.4614666666666666	5.081733333333333	1.0
768.8385316982803	0.4612333333333333	5.164933333333334	1.0
768.8385316982803	0.46599999999999997	5.2116	1.0
769.9734755850983	0.4424333333333332	5.089333333333334	1.0
769.9734755850983	0.4260999999999999	4.721733333333333	1.0
769.9734755850983	0.4234	4.7077333333333335	1.0
769.9734405782632	0.419	4.660666666666667	1.0
769.9734405782632	0.4448666666666666	5.0908	1.0
769.9734405782632	0.4380999999999998	5.015333333333333	1.0
770.7626313347514	0.4380999999999998	5.2173333333333325	1.0
770.7626313347514	0.4577666666666666	5.2173333333333325	1.0
770.7626313347514	0.45166666666666655	5.219466666666667	1.0
770.8492161206514	0.45333333333333325	5.190533333333334	1.0
770.8492161206514	0.45183333333333325	5.2303999999999995	1.0
770.8492161206514	0.4544666666666666	5.108133333333334	1.0
770.8492161206514	0.4179999999999999	4.6916	1.0
770.8492161206514	0.4116666666666666	4.688133333333334	1.0
771.5540950461387	0.45036666666666664	5.0032000000000005	1.0
771.5540950461387	0.4215666666666666	4.8004	1.0
771.5540950461387	0.41253333333333325	4.687733333333333	1.0
771.9078824737887	0.3994666666666666	4.6348	1.0
771.9078824737887	0.3994666666666666	4.600133333333333	1.0
771.9078824737887	0.40653333333333325	4.600133333333333	1.0
773.0524472093222	0.41589999999999994	4.723066666666667	1.0
773.0524472093222	0.4443666666666667	5.328133333333334	1.0
773.0524472093222	0.42363333333333325	4.896133333333334	1.0
773.0522664633911	0.40693333333333326	4.762133333333334	1.0
773.0522664633911	0.41653333333333326	4.815333333333334	1.0
773.0522664633911	0.44353333333333317	5.136	1.0
773.8502335661148	0.42639999999999995	4.903333333333333	1.0
773.8502335661148	0.44639999999999996	5.201733333333333	1.0
773.8502335661148	0.4537333333333333	5.284400000000001	1.0
773.9352734744386	0.4537333333333333	5.4308	1.0
773.9352734744386	0.4578999999999999	5.2768	1.0
773.9352734744386	0.45069999999999993	5.2768	1.0
774.2045496738677	0.41859999999999997	4.8976	1.0
774.2045496738677	0.40556666666666663	4.765066666666667	1.0
774.2045496738677	0.40356666666666663	4.6437333333333335	1.0
774.9205983853524	0.44163333333333327	5.069599999999999	1.0
774.9205983853524	0.4258333333333333	4.914266666666666	1.0
774.9205983853524	0.4149333333333333	4.918533333333333	1.0
774.9205983853524	0.4086666666666666	4.895866666666667	1.0
774.9205983853524	0.4198333333333333	4.8908	1.0
774.9205983853524	0.4571	5.371599999999999	1.0
776.1610805437637	0.4571	5.433066666666667	1.0
776.1610805437637	0.4539666666666667	5.076266666666667	1.0
776.1610805437637	0.42123333333333324	5.076266666666667	1.0
776.2496907924716	0.42896666666666666	5.0376	1.0
776.2496907924716	0.43299999999999994	5.062533333333334	1.0
776.2496907924716	0.4533333333333333	5.449333333333334	1.0
776.9633705190101	0.4538666666666666	5.237466666666666	1.0
776.9633705190101	0.43333333333333324	5.195733333333334	1.0
776.9633705190101	0.4517	5.2969333333333335	1.0
776.964529212484	0.46933333333333316	5.521066666666666	1.0
776.964529212484	0.48829999999999996	5.685733333333333	1.0
776.964529212484	0.46529999999999994	5.557599999999999	1.0
777.3213084971203	0.46529999999999994	5.555466666666666	1.0
777.3213084971203	0.4669	5.555466666666666	1.0
777.3213084971203	0.45666666666666667	5.473333333333334	1.0
778.0376036639218	0.44393333333333324	5.1044	1.0
778.0376036639218	0.4533333333333333	5.286133333333334	1.0
778.0376036639218	0.44633333333333325	5.158933333333333	1.0
778.1243684865437	0.43363333333333326	5.151066666666667	1.0
778.1243684865437	0.43599999999999994	5.1521333333333335	1.0
778.1243684865437	0.4425333333333332	5.204666666666666	1.0
778.3999916052691	0.46563333333333334	5.378533333333333	1.0
778.3999916052691	0.4645999999999999	5.4416	1.0
778.3999916052691	0.4645999999999999	5.383333333333334	1.0
779.6492612044088	0.44663333333333327	5.347466666666667	1.0
779.6492612044088	0.45593333333333325	5.347466666666667	1.0
779.6492612044088	0.47859999999999997	5.497333333333333	1.0
780.0110901415649	0.45456666666666656	5.235733333333332	1.0
780.0110901415649	0.4553333333333332	5.333466666666666	1.0
780.0110901415649	0.4536333333333333	5.282933333333333	1.0
780.1865353738577	0.4657333333333332	5.5384	1.0
780.1865353738577	0.4898333333333333	5.798133333333333	1.0
780.1865353738577	0.48579999999999995	5.762133333333334	1.0
780.5752315637266	0.46983333333333327	5.528666666666666	1.0
780.5752315637266	0.4595333333333333	5.223333333333334	1.0
780.5752315637266	0.4595333333333333	5.4924	1.0
781.1851371624539	0.4700333333333333	5.4924	1.0
781.1851371624539	0.46606666666666663	5.433466666666667	1.0
781.2717101173794	0.46756666666666663	5.287333333333333	1.0
781.2717101173794	0.44123333333333326	5.141866666666667	1.0
781.2717101173794	0.4599999999999999	5.3351999999999995	1.0
782.447326128939	0.4749666666666666	5.552666666666666	1.0
782.447326128939	0.4823666666666666	5.470133333333333	1.0
782.447326128939	0.49846666666666656	5.4036	1.0
782.8143065705864	0.47919999999999996	5.341866666666666	1.0
782.8143065705864	0.5196666666666666	5.9056	1.0
782.8143065705864	0.5196666666666666	5.442266666666666	1.0
783.1798146905801	0.4928666666666666	5.360933333333333	1.0
783.1798146905801	0.4875999999999999	5.360933333333333	1.0
783.1798146905801	0.4745666666666667	5.340133333333333	1.0
783.5388983695074	0.5053666666666666	5.6874666666666664	1.0
783.5388983695074	0.5549333333333333	6.2112	1.0
783.5388983695074	0.5783666666666666	6.3950666666666685	1.0
783.6291893098349	0.5648	6.2588	1.0
783.6291893098349	0.49549999999999994	5.6564	1.0
783.6291893098349	0.5127666666666666	5.526933333333333	1.0
784.4464921238839	0.5273999999999999	5.780266666666666	1.0
784.4464921238839	0.5172999999999998	5.5557333333333325	1.0
784.4464921238839	0.5172999999999998	5.2752	1.0
784.4477058902959	0.4855333333333332	5.24	1.0
784.4477058902959	0.4934333333333332	5.24	1.0
784.4477058902959	0.48169999999999996	5.243733333333333	1.0
784.7236217636381	0.4934999999999998	5.3908	1.0
784.7236217636381	0.5072999999999999	5.551733333333333	1.0
784.7236217636381	0.5269333333333333	5.684666666666666	1.0
785.9069521543221	0.5715666666666666	6.191466666666667	1.0
785.9069521543221	0.5276333333333333	5.557333333333332	1.0
785.9069521543221	0.5261666666666666	5.400666666666666	1.0
785.9085825756762	0.5181666666666667	5.403733333333333	1.0
785.9085825756762	0.5181666666666667	6.208799999999999	1.0
785.9085825756762	0.5861999999999999	6.231333333333334	1.0
786.3641119859248	0.5962999999999999	6.231333333333334	1.0
786.3641119859248	0.5644333333333332	6.028933333333334	1.0
786.3641119859248	0.5826666666666666	5.997466666666667	1.0
786.7331805901445	0.6171666666666666	6.4216	1.0
786.7331805901445	0.6368666666666667	6.5440000000000005	1.0
786.7331805901445	0.6192	6.5528	1.0
786.7342461090582	0.6274	6.526533333333333	1.0
786.7342461090582	0.5531999999999999	5.428933333333333	1.0
786.7342461090582	0.6018333333333333	5.905999999999999	1.0
787.4669961758478	0.6018333333333333	5.905733333333333	1.0
787.4669961758478	0.5829	5.727333333333333	1.0
787.4669961758478	0.5762333333333333	5.727333333333333	1.0
787.9245950097185	0.5643999999999999	5.558266666666666	1.0
787.9245950097185	0.6303	6.0604000000000005	1.0
787.9245950097185	0.6586666666666666	6.407333333333335	1.0
787.926164133775	0.6779333333333333	6.519999999999999	1.0
787.926164133775	0.6546333333333333	6.5211999999999986	1.0
787.926164133775	0.6538999999999998	5.938266666666666	1.0
789.1225339467778	0.6472333333333333	5.904133333333332	1.0
789.1225339467778	0.6950333333333333	6.040133333333333	1.0
789.1225339467778	0.7046	6.0404	1.0
789.9505742185262	0.7046	6.147733333333334	1.0
789.9505742185262	0.7291666666666665	6.147733333333334	1.0
789.9505742185262	0.7651666666666667	6.387333333333334	1.0
789.9518204356788	0.7750333333333334	6.421866666666668	1.0
789.9518204356788	0.7828333333333333	6.413333333333335	1.0
789.9518204356788	0.7776	6.2264	1.0
785.9103662491086	0.5828666666666666	5.635333333333333	1.0
785.9103662491086	0.5263333333333332	5.635333333333333	1.0
785.9103662491086	0.5411999999999999	5.747066666666666	1.0
784.810100760505	0.5504666666666667	5.978666666666666	1.0
784.810100760505	0.5128333333333333	5.514266666666667	1.0
784.810100760505	0.5065999999999998	5.359866666666666	1.0
784.6352848714295	0.5151333333333332	5.7072	1.0
784.6352848714295	0.5052666666666666	5.496933333333333	1.0
784.6352848714295	0.49520000000000003	5.467733333333334	1.0
784.4464518715198	0.5136333333333333	5.478666666666667	1.0
784.4464518715198	0.5136333333333333	5.675466666666666	1.0
783.6317493140522	0.5176999999999999	5.970666666666666	1.0
783.6317493140522	0.5413333333333332	5.970666666666666	1.0
783.6317493140522	0.5330666666666666	5.976933333333333	1.0
783.62952720107	0.5411333333333332	6.0633333333333335	1.0
783.62952720107	0.5374333333333332	5.997733333333334	1.0
783.62952720107	0.5111666666666665	5.866933333333333	1.0
783.62952720107	0.4972666666666666	5.580933333333333	1.0
783.62952720107	0.47069999999999995	5.245466666666666	1.0
783.62952720107	0.4850999999999999	5.491866666666667	1.0
782.813363125741	0.5037999999999999	5.608266666666666	1.0
782.813363125741	0.48773333333333324	5.422533333333333	1.0
782.813363125741	0.48773333333333324	5.672666666666667	1.0
782.4468205931191	0.4952333333333332	5.672666666666667	1.0
782.4468205931191	0.5164666666666665	5.904666666666666	1.0
782.4468205931191	0.5112666666666666	5.8675999999999995	1.0
781.5442609583502	0.4823333333333333	5.382533333333333	1.0
781.5442609583502	0.4642333333333333	5.315733333333332	1.0
781.5442609583502	0.4644	5.363866666666667	1.0
781.311891189823	0.4650333333333333	5.4	1.0
781.311891189823	0.4695666666666667	5.414666666666667	1.0
781.311891189823	0.47039999999999993	5.6158666666666655	1.0
780.459729780243	0.48403333333333326	5.52	1.0
780.459729780243	0.48403333333333326	5.982666666666667	1.0
780.459729780243	0.5106999999999999	6.0196	1.0
780.4584171011946	0.5116666666666666	6.0196	1.0
780.4584171011946	0.4803666666666665	5.6419999999999995	1.0
780.4584171011946	0.4479333333333333	5.284933333333333	1.0
780.1016997014035	0.4390333333333333	5.177066666666667	1.0
780.1016997014035	0.4523333333333333	5.227866666666667	1.0
780.1016997014035	0.4634666666666665	5.390133333333333	1.0
779.6539425409118	0.4581666666666666	5.2796	1.0
779.6539425409118	0.47623333333333323	5.6328000000000005	1.0
779.6539425409118	0.4905333333333332	5.771333333333333	1.0
778.3965973592256	0.4905333333333332	5.387866666666667	1.0
778.3965973592256	0.4530666666666665	5.519599999999999	1.0
778.3965973592256	0.47086666666666654	5.519599999999999	1.0
778.1257960952671	0.46359999999999996	5.6568	1.0
778.1257960952671	0.48066666666666663	5.6536	1.0
778.1257960952671	0.46966666666666657	5.637733333333332	1.0
778.1249435167854	0.4765666666666666	5.639999999999999	1.0
778.1249435167854	0.4653999999999999	5.6	1.0
778.1249435167854	0.45173333333333326	5.3996	1.0
777.3212946516917	0.4567999999999999	5.410399999999999	1.0
777.3212946516917	0.49406666666666654	5.7338666666666676	1.0
777.3212946516917	0.4567666666666666	5.3236	1.0
777.0503272242753	0.4567666666666666	5.183066666666666	1.0
777.0503272242753	0.44089999999999996	5.2104	1.0
777.0503272242753	0.4444999999999999	5.2104	1.0
776.8780028957643	0.4464666666666667	5.215333333333333	1.0
776.8780028957643	0.4729333333333333	5.612799999999999	1.0
776.8780028957643	0.47789999999999994	5.5805333333333325	1.0
776.8780028957643	0.4249333333333333	4.968666666666667	1.0
776.8780028957643	0.4473666666666666	5.268533333333333	1.0
776.8780028957643	0.4706666666666666	5.709733333333333	1.0
775.2745485224343	0.4755666666666665	5.5957333333333334	1.0
775.2745485224343	0.4106333333333333	4.8693333333333335	1.0
775.2745485224343	0.40046666666666664	4.683866666666666	1.0
775.0895128487431	0.40046666666666664	4.9585333333333335	1.0
775.0895128487431	0.4205999999999999	4.9585333333333335	1.0
775.0895128487431	0.45683333333333326	5.469200000000001	1.0
775.0895128487431	0.4601666666666666	5.447066666666667	1.0
775.0895128487431	0.45796666666666663	5.339733333333333	1.0
775.0895128487431	0.4401666666666666	5.158133333333334	1.0
774.2926094521305	0.4302333333333333	5.146533333333333	1.0
774.2926094521305	0.44446666666666657	5.191333333333334	1.0
774.2926094521305	0.4533333333333333	5.315066666666667	1.0
773.8502539875568	0.4300333333333333	5.048	1.0
773.8502539875568	0.42010000000000003	4.818133333333334	1.0
773.8502539875568	0.4152999999999999	4.806133333333334	1.0
773.8526619300006	0.4152999999999999	4.869066666666666	1.0
773.8526619300006	0.4178666666666666	4.869066666666666	1.0
773.8526619300006	0.4053333333333333	4.694533333333334	1.0
773.1410190003129	0.4020333333333333	4.647200000000001	1.0
773.1410190003129	0.43086666666666656	5.0032000000000005	1.0
771.994413662667	0.41559999999999997	4.802666666666667	1.0
771.994413662667	0.41259999999999997	4.8684	1.0
771.994413662667	0.44310000000000005	5.180133333333333	1.0
771.9058187517358	0.4596	5.240533333333333	1.0
771.9058187517358	0.4571666666666666	5.24	1.0
771.9058187517358	0.4453333333333332	5.118133333333334	1.0
771.1170211545837	0.4147666666666666	4.708266666666667	1.0
771.1170211545837	0.4147666666666666	5.0656	1.0
771.1170211545837	0.4404666666666666	5.0656	1.0
770.8470040943248	0.4498333333333333	5.2026666666666666	1.0
770.8470040943248	0.4542	5.197333333333333	1.0
770.8470040943248	0.43333333333333324	4.897866666666666	1.0
770.7656526428768	0.4258666666666666	4.833066666666667	1.0
770.7656526428768	0.4223333333333333	4.779733333333334	1.0
770.7656526428768	0.42293333333333333	4.761733333333333	1.0
769.9722304972582	0.4352333333333332	4.893066666666666	1.0
769.9722304972582	0.42123333333333324	4.841733333333333	1.0
769.9722304972582	0.4667999999999999	5.356133333333333	1.0
769.9753058238913	0.4667999999999999	5.408799999999999	1.0
769.9753058238913	0.4745333333333332	4.918666666666667	1.0
769.9753058238913	0.43906666666666655	4.918666666666667	1.0
768.9197600718771	0.41313333333333335	4.5184	1.0
768.9197600718771	0.4053666666666666	4.495466666666667	1.0
768.9197600718771	0.4324333333333333	4.717866666666667	1.0
768.7514389349215	0.4720333333333332	5.229466666666667	1.0
768.7514389349215	0.44866666666666655	5.034933333333333	1.0
768.7514389349215	0.44933333333333325	5.0508	1.0
768.0547013584978	0.44673333333333326	4.991333333333333	1.0
768.0547013584978	0.4550999999999999	5.0408	1.0
768.0547013584978	0.47013333333333324	5.1609333333333325	1.0
767.7894161069071	0.47013333333333324	4.925599999999999	1.0
767.7894161069071	0.45619999999999994	4.749066666666667	1.0
767.7894161069071	0.4274999999999999	4.749066666666667	1.0
767.7025738757721	0.42513333333333325	4.6837333333333335	1.0
767.7025738757721	0.4323333333333333	4.679200000000001	1.0
767.7025738757721	0.4237666666666666	4.578	1.0
766.9172163265324	0.44096666666666656	4.693066666666666	1.0
766.9172163265324	0.46813333333333335	5.074400000000001	1.0
766.9172163265324	0.4648	5.0816	1.0
766.9172163265324	0.4533999999999999	5.053466666666666	1.0
766.9215100236418	0.4374999999999999	4.9708	1.0
766.9215100236418	0.4077666666666666	4.250133333333333	1.0
766.9215100236418	0.4077666666666666	4.7688	1.0
765.7901857347551	0.43406666666666655	4.7688	1.0
765.7901857347551	0.46326666666666655	5.0796	1.0
765.7901857347551	0.4490333333333333	4.886533333333333	1.0
765.4431171926653	0.4322333333333332	4.514666666666667	1.0
765.4431171926653	0.4254666666666666	4.596266666666667	1.0
765.4431171926653	0.4447999999999999	4.708400000000001	1.0
765.0120930885969	0.4234333333333332	4.5520000000000005	1.0
765.0120930885969	0.44463333333333327	4.8392	1.0
765.0120930885969	0.4424333333333332	4.84	1.0
765.0119704365087	0.45883333333333326	4.8308	1.0
765.0119704365087	0.45883333333333326	4.7918666666666665	1.0
765.0119704365087	0.4565333333333333	4.839733333333333	1.0
765.0111181232795	0.4463666666666666	4.839733333333333	1.0
765.0111181232795	0.4348333333333333	4.695600000000001	1.0
765.0111181232795	0.43359999999999993	4.644933333333334	1.0
765.0111181232795	0.40613333333333324	4.2904	1.0
765.0111181232795	0.4082666666666666	4.264533333333333	1.0
765.0111181232795	0.41846666666666654	4.284533333333333	1.0
763.9747857027182	0.41676666666666656	4.225866666666667	1.0
763.9747857027182	0.40716666666666657	4.1356	1.0
763.9747857027182	0.3999333333333333	4.120800000000001	1.0
763.9750152949042	0.4094666666666666	4.189733333333333	1.0
763.9750152949042	0.4094666666666666	4.276266666666666	1.0
763.9750152949042	0.4139999999999999	4.276266666666666	1.0
763.971953157753	0.4275333333333332	4.415466666666668	1.0
763.971953157753	0.4376333333333332	4.597066666666667	1.0
763.971953157753	0.44906666666666656	4.7624	1.0
763.6313715115066	0.46523333333333333	4.779333333333333	1.0
763.6313715115066	0.4347999999999999	4.572266666666666	1.0
763.6313715115066	0.4322666666666666	4.437333333333334	1.0
763.6313715115066	0.41029999999999994	4.328133333333334	1.0
762.425285515652	0.4159999999999999	4.2016	1.0
762.425285515652	0.41693333333333327	4.154133333333334	1.0
762.425285515652	0.41693333333333327	4.5408	1.0
762.0805815907671	0.43939999999999996	4.829866666666667	1.0
762.0805815907671	0.45826666666666654	4.829866666666667	1.0
762.0805815907671	0.41376666666666667	4.217466666666667	1.0
761.9950918487613	0.3871666666666666	3.922266666666667	1.0
761.9950918487613	0.38023333333333326	3.7968000000000006	1.0
761.9950918487613	0.3999999999999999	3.9650666666666665	1.0
759.356405071535	0.4319666666666666	4.348800000000001	1.0
759.356405071535	0.41913333333333325	4.193733333333333	1.0
759.356405071535	0.4009333333333333	3.9726666666666657	1.0
759.356405071535	0.40569999999999995	3.9248000000000003	1.0
759.356405071535	0.4100333333333333	3.9456	1.0
759.356405071535	0.4100333333333333	4.2616000000000005	1.0
758.9195222071063	0.4294	4.444133333333334	1.0
758.9195222071063	0.43793333333333334	4.444133333333334	1.0
758.9195222071063	0.4427333333333332	4.422000000000001	1.0
757.8989167511116	0.42039999999999994	4.1812000000000005	1.0
757.8989167511116	0.4032333333333333	3.9184	1.0
757.8989167511116	0.4014	3.8088	1.0
757.8207455885562	0.4469333333333333	4.247466666666668	1.0
757.8207455885562	0.4455666666666666	4.4350666666666685	1.0
757.8207455885562	0.44839999999999997	4.37	1.0
757.8207455885562	0.44413333333333327	4.295466666666667	1.0
758.170113900191	0.4393333333333333	4.260266666666666	1.0
758.170113900191	0.4393333333333333	4.287333333333333	1.0
758.170113900191	0.4448666666666666	4.287333333333333	1.0
756.7972331971926	0.45899999999999996	4.438933333333335	1.0
756.7972331971926	0.44536666666666663	4.2484	1.0
756.7972331971926	0.4393333333333332	4.185733333333333	1.0
756.0401868338415	0.4472666666666665	4.327066666666667	1.0
756.0401868338415	0.4103666666666666	3.898933333333333	1.0
756.0401868338415	0.41909999999999986	3.8060000000000005	1.0
755.9546108914845	0.41646666666666654	3.940666666666666	1.0
755.9546108914845	0.45909999999999995	4.382533333333334	1.0
755.9546108914845	0.45683333333333326	4.347066666666667	1.0
755.0265592234131	0.45683333333333326	4.170933333333333	1.0
755.0265592234131	0.4501666666666666	3.953333333333333	1.0
755.0265592234131	0.4348	3.953333333333333	1.0
754.9404909571756	0.4179999999999999	3.862133333333333	1.0
754.9404909571756	0.42063333333333325	3.8124000000000002	1.0
754.9404909571756	0.4297666666666667	3.909333333333332	1.0
753.964044356718	0.4450666666666666	4.049200000000001	1.0
753.964044356718	0.4502333333333333	4.157066666666667	1.0
753.964044356718	0.4441666666666666	4.143866666666667	1.0
753.964044356718	0.45606666666666656	4.1392	1.0
753.964044356718	0.47113333333333324	4.420133333333335	1.0
753.964044356718	0.47113333333333324	4.104666666666667	1.0
753.964044356718	0.44596666666666657	3.839333333333334	1.0
753.0929561934925	0.4348	3.839333333333334	1.0
753.0929561934925	0.4188666666666666	3.7353333333333345	1.0
753.0929561934925	0.4261333333333333	3.796266666666667	1.0
752.7547290000284	0.4743999999999999	4.351733333333334	1.0
752.7547290000284	0.48669999999999985	4.477066666666667	1.0
752.7547290000284	0.46876666666666666	4.238533333333334	1.0
752.7547290000284	0.4395666666666666	3.931466666666666	1.0
752.7547290000284	0.4494333333333333	3.9546666666666663	1.0
752.7547290000284	0.45206666666666656	3.9847999999999995	1.0
751.0024818840056	0.46596666666666653	4.089333333333334	1.0
751.0024818840056	0.46596666666666653	4.1652	1.0
751.0024818840056	0.4617666666666666	4.232399999999999	1.0
750.920320319258	0.47836666666666655	4.232399999999999	1.0
750.920320319258	0.48833333333333334	4.28	1.0
750.920320319258	0.4827999999999999	4.249733333333333	1.0
750.1720824448929	0.47943333333333327	4.2116	1.0
750.1720824448929	0.4776333333333332	4.146933333333334	1.0
750.1720824448929	0.45906666666666657	3.9956	1.0
750.1720824448929	0.45109999999999995	3.873999999999999	1.0
750.1720824448929	0.44826666666666665	3.88	1.0
750.1720824448929	0.4626666666666665	3.896	1.0
750.1720824448929	0.4626666666666665	4.077466666666667	1.0
