wavelength(nm)	flourescence PMT(V)	ti_saph Power (V)	Gain (V)
750.9172247969193	0.44139999999999996	4.078133333333334	1.0
750.9172247969193	0.44383333333333325	4.100400000000001	1.0
750.9170562810483	0.43816666666666665	4.066266666666667	1.0
750.9170562810483	0.43816666666666665	4.0944	1.0
750.9170562810483	0.4472333333333332	4.108666666666667	1.0
750.9202988203721	0.4426333333333332	4.108666666666667	1.0
750.9202988203721	0.4309333333333332	4.016133333333334	1.0
750.9202988203721	0.4472666666666666	4.073333333333333	1.0
750.9170349887106	0.44849999999999995	4.084133333333334	1.0
750.9170349887106	0.4374333333333333	4.0225333333333335	1.0
750.9170349887106	0.43416666666666665	4.0065333333333335	1.0
750.9981015956081	0.4476333333333332	4.1113333333333335	1.0
750.9981015956081	0.4378666666666666	4.0149333333333335	1.0
750.9981015956081	0.42846666666666655	3.954266666666666	1.0
750.9981015956081	0.43793333333333323	3.9726666666666666	1.0
750.9981015956081	0.43793333333333323	4.066666666666667	1.0
750.9164491674727	0.4406999999999999	4.079066666666668	1.0
750.9164491674727	0.43603333333333333	4.079066666666668	1.0
750.9164491674727	0.43629999999999997	4.066266666666667	1.0
751.1712616606129	0.43293333333333334	4.016133333333334	1.0
751.1712616606129	0.4356999999999999	3.9489333333333327	1.0
751.1712616606129	0.43743333333333323	3.9818666666666664	1.0
750.9204335047949	0.43706666666666666	4.023600000000001	1.0
750.9204335047949	0.4282666666666665	4.028666666666667	1.0
750.9172136233653	0.43389999999999984	4.0385333333333335	1.0
750.9172136233653	0.43136666666666656	4.026266666666667	1.0
750.9172136233653	0.43136666666666656	4.021466666666667	1.0
751.3321528987291	0.4418999999999999	3.964666666666666	1.0
751.3321528987291	0.43156666666666654	3.964666666666666	1.0
751.3321528987291	0.4561999999999999	4.345333333333334	1.0
751.3321528987291	0.45519999999999994	4.1856	1.0
751.3321528987291	0.4300666666666666	4.075200000000001	1.0
751.3321528987291	0.44076666666666664	4.117333333333334	1.0
752.0008516643744	0.43379999999999996	4.1416	1.0
752.0008516643744	0.4142333333333333	4.025333333333334	1.0
753.0897380515266	0.4316	4.168	1.0
753.0897380515266	0.43106666666666665	4.131200000000001	1.0
753.0897380515266	0.4176999999999999	4.131200000000001	1.0
753.1710602311608	0.42669999999999997	4.115066666666666	1.0
753.1710602311608	0.4323333333333332	4.058666666666666	1.0
753.1710602311608	0.4563666666666666	4.407733333333334	1.0
757.4753651115677	0.43979999999999997	4.440800000000001	1.0
757.4753651115677	0.40153333333333324	3.9857333333333327	1.0
753.9259324594852	0.40269999999999995	3.9066666666666667	1.0
753.9259324594852	0.45269999999999994	4.398533333333335	1.0
753.9259324594852	0.4607333333333332	4.5732	1.0
753.9259324594852	0.4798999999999999	4.5982666666666665	1.0
753.9259324594852	0.4798999999999999	4.5949333333333335	1.0
753.9259324594852	0.46903333333333325	4.5949333333333335	1.0
754.4780832237485	0.4377999999999999	4.241066666666668	1.0
754.4780832237485	0.4380333333333332	4.37	1.0
754.4780832237485	0.43406666666666655	4.403066666666668	1.0
755.2737941857146	0.4500666666666666	4.591066666666667	1.0
755.2737941857146	0.4418333333333333	4.4348	1.0
755.6965989874194	0.44849999999999995	4.486133333333334	1.0
755.6965989874194	0.43366666666666653	4.397200000000001	1.0
755.6965989874194	0.40253333333333324	4.037733333333333	1.0
756.1169258865459	0.4093	4.046133333333334	1.0
756.1169258865459	0.4093	3.9818666666666664	1.0
756.1169258865459	0.4124666666666666	4.050000000000001	1.0
756.1165744359672	0.4066333333333333	4.050000000000001	1.0
756.1165744359672	0.4184999999999999	4.2485333333333335	1.0
756.1165744359672	0.41949999999999993	4.327066666666666	1.0
756.7973160710482	0.4128666666666666	4.2516	1.0
756.7973160710482	0.4031333333333333	4.106133333333334	1.0
756.7972332749998	0.3972666666666666	4.000133333333333	1.0
756.7972332749998	0.39599999999999996	3.992266666666666	1.0
756.7972332749998	0.40846666666666664	4.0112	1.0
757.1326290392415	0.4169999999999999	4.24	1.0
757.1326290392415	0.43323333333333325	4.436666666666667	1.0
757.1326290392415	0.43323333333333325	4.437600000000001	1.0
757.2170211791591	0.4420666666666666	4.304266666666667	1.0
757.2170211791591	0.4185333333333333	4.304266666666667	1.0
757.2170211791591	0.4031666666666666	4.132933333333334	1.0
757.2170211791591	0.40109999999999996	3.9755999999999996	1.0
757.2170211791591	0.39809999999999995	3.999333333333333	1.0
757.2170211791591	0.40643333333333326	4.22	1.0
757.556472593682	0.43916666666666665	4.528133333333334	1.0
757.556472593682	0.4478666666666667	4.697733333333334	1.0
757.5836870556543	0.45893333333333336	4.7481333333333335	1.0
757.5836870556543	0.44626666666666653	4.829066666666666	1.0
757.5836870556543	0.46146666666666664	4.891733333333334	1.0
762.0758932316319	0.46146666666666664	4.9239999999999995	1.0
762.0758932316319	0.46843333333333326	4.9239999999999995	1.0
762.0758932316319	0.4673	4.981333333333334	1.0
762.0758932316319	0.46403333333333324	5.0528	1.0
762.0758932316319	0.44853333333333334	4.899733333333333	1.0
762.0758932316319	0.4556666666666666	4.9559999999999995	1.0
762.0775435988097	0.4630666666666665	4.9516	1.0
762.0775435988097	0.43359999999999993	4.832	1.0
762.1582840239331	0.41079999999999994	4.5144	1.0
762.1582840239331	0.39319999999999994	4.341733333333334	1.0
762.1582840239331	0.3916333333333333	4.128533333333334	1.0
762.7680143212247	0.3916333333333333	4.246666666666667	1.0
762.7680143212247	0.37586666666666657	4.983733333333333	1.0
762.7680143212247	0.43679999999999997	4.983733333333333	1.0
762.7680143212247	0.4494333333333333	5.16	1.0
762.7680143212247	0.4517666666666666	5.180133333333333	1.0
762.7680143212247	0.45883333333333326	5.090133333333334	1.0
763.9663912753706	0.4355666666666666	4.920133333333333	1.0
763.9663912753706	0.4447	4.915466666666666	1.0
763.9663717564928	0.43333333333333335	4.9686666666666675	1.0
763.9663717564928	0.45123333333333326	4.998266666666667	1.0
763.9663717564928	0.4414333333333333	4.9719999999999995	1.0
763.9672155848464	0.43623333333333325	4.997466666666666	1.0
763.9672155848464	0.43623333333333325	4.988933333333334	1.0
763.9672155848464	0.4376666666666666	4.988933333333334	1.0
764.3972040480646	0.4242999999999999	4.793333333333333	1.0
764.3972040480646	0.42056666666666664	4.755600000000001	1.0
764.3972040480646	0.4193333333333333	4.708666666666668	1.0
764.923509128389	0.4000333333333333	4.5584	1.0
764.923509128389	0.38343333333333324	4.2992	1.0
765.0077270176948	0.3808333333333333	4.351066666666667	1.0
765.0077270176948	0.3919666666666666	4.429600000000001	1.0
765.0077270176948	0.39436666666666664	4.4362666666666675	1.0
765.4394371656424	0.40673333333333334	4.704400000000001	1.0
765.4394371656424	0.40673333333333334	4.765066666666667	1.0
765.4394371656424	0.4122999999999999	4.7405333333333335	1.0
765.5225325904497	0.4116333333333333	4.7405333333333335	1.0
765.5225325904497	0.40153333333333324	4.552533333333334	1.0
765.5225325904497	0.4273666666666666	4.903866666666667	1.0
765.8743300229928	0.4302999999999999	4.9216	1.0
765.8743300229928	0.42163333333333325	4.955733333333334	1.0
765.9551345299748	0.42833333333333334	4.916133333333333	1.0
765.9551345299748	0.43139999999999995	4.8832	1.0
765.9551345299748	0.4111666666666666	4.754933333333334	1.0
766.9973327079971	0.40443333333333326	4.628266666666667	1.0
766.9973327079971	0.41053333333333325	4.830799999999999	1.0
766.9973327079971	0.41053333333333325	5.3991999999999996	1.0
767.0834920622586	0.4600999999999999	5.263333333333334	1.0
767.0834920622586	0.4475	5.263333333333334	1.0
767.0834920622586	0.39139999999999997	4.545466666666666	1.0
767.0834920622586	0.36903333333333327	4.439733333333334	1.0
767.0834920622586	0.40369999999999995	4.745733333333334	1.0
767.7854178885786	0.43896666666666656	5.190666666666667	1.0
767.7854178885786	0.4379	5.1888	1.0
767.7854178885786	0.4161666666666666	4.879199999999999	1.0
768.0505114662878	0.4277999999999999	4.855733333333333	1.0
768.0505114662878	0.4233666666666666	4.881066666666666	1.0
768.0505114662878	0.40593333333333326	4.841733333333333	1.0
768.7476810709986	0.40593333333333326	4.798	1.0
768.7476810709986	0.40319999999999995	4.798	1.0
768.9178297058708	0.4051666666666666	4.757466666666668	1.0
768.9178297058708	0.3893666666666666	4.717466666666667	1.0
768.9178297058708	0.39459999999999995	4.766133333333334	1.0
769.1854022416054	0.4205666666666666	5.036533333333334	1.0
769.1854022416054	0.43049999999999994	5.1997333333333335	1.0
769.1854022416054	0.4340999999999999	5.162933333333334	1.0
770.1414685123717	0.43549999999999994	5.1848	1.0
770.1414685123717	0.4173666666666666	5.1251999999999995	1.0
770.1414685123717	0.45893333333333325	5.639600000000001	1.0
770.4097967125123	0.45893333333333325	5.400933333333333	1.0
770.4097967125123	0.44389999999999996	5.306933333333333	1.0
770.4097967125123	0.4296999999999999	5.306933333333333	1.0
770.4097967125123	0.40676666666666655	4.969733333333334	1.0
770.4097967125123	0.4413666666666666	5.3111999999999995	1.0
771.195740323086	0.43883333333333324	5.470266666666666	1.0
771.195740323086	0.40533333333333327	4.870933333333333	1.0
771.195740323086	0.4298	5.257066666666666	1.0
771.5537246385854	0.45356666666666656	5.4	1.0
771.5537246385854	0.41743333333333327	5.087600000000001	1.0
771.5537246385854	0.3972666666666666	4.757866666666667	1.0
771.9035626294167	0.3972666666666666	4.754533333333334	1.0
771.9035626294167	0.3893999999999999	5.0216	1.0
772.2578396101195	0.39909999999999995	5.0216	1.0
772.2578396101195	0.41766666666666663	5.266933333333333	1.0
772.2578396101195	0.4298666666666666	5.3806666666666665	1.0
781.433049189165	0.41579999999999995	5.295866666666666	1.0
781.433049189165	0.4058999999999999	5.082533333333333	1.0
781.433049189165	0.45603333333333324	5.620133333333333	1.0
773.4903866757844	0.4503333333333332	5.6605333333333325	1.0
773.4903866757844	0.42079999999999995	5.343066666666666	1.0
773.4903866757844	0.4023999999999999	4.906133333333334	1.0
773.9339711952938	0.42623333333333324	5.378	1.0
773.9339711952938	0.42623333333333324	5.687466666666666	1.0
774.2891818880153	0.4593333333333332	5.010800000000001	1.0
774.2891818880153	0.4028666666666666	5.010800000000001	1.0
774.2891818880153	0.3998333333333333	4.9101333333333335	1.0
774.7323729322118	0.4341	5.4448	1.0
774.7323729322118	0.417	5.205066666666666	1.0
774.7323729322118	0.4125666666666666	5.142533333333334	1.0
775.0878241936432	0.4019	5.0176	1.0
775.0878241936432	0.3922666666666666	5.070933333333334	1.0
775.0878241936432	0.4226333333333333	5.3049333333333335	1.0
775.0896281038221	0.4195666666666666	5.462533333333332	1.0
775.0896281038221	0.45903333333333324	5.778533333333333	1.0
775.3570040466373	0.45903333333333324	5.850933333333333	1.0
775.3570040466373	0.45826666666666666	5.850933333333333	1.0
775.3570040466373	0.4559666666666665	5.702533333333332	1.0
775.3570040466373	0.43759999999999993	5.445866666666666	1.0
775.3570040466373	0.41056666666666664	5.166933333333333	1.0
775.3570040466373	0.4644	5.852266666666667	1.0
776.6025671742439	0.4753333333333332	5.896533333333332	1.0
776.6025671742439	0.4601666666666666	5.893199999999999	1.0
776.6025671742439	0.44673333333333326	5.488133333333334	1.0
776.9628537615761	0.4254333333333333	5.338933333333333	1.0
776.9628537615761	0.43633333333333324	5.417199999999999	1.0
777.3197403801626	0.43633333333333324	5.867466666666666	1.0
777.3197403801626	0.46366666666666656	5.741866666666667	1.0
777.3197403801626	0.4633999999999999	5.741866666666667	1.0
777.761038918657	0.4579333333333333	5.730266666666666	1.0
777.761038918657	0.46886666666666654	5.942133333333333	1.0
777.761038918657	0.4244	5.384933333333334	1.0
778.1206790075018	0.4280999999999999	5.324666666666666	1.0
778.1206790075018	0.4448999999999999	5.4836	1.0
778.1206790075018	0.4599666666666666	5.747066666666666	1.0
778.4798796863267	0.4711666666666666	5.933866666666666	1.0
778.4798796863267	0.45899999999999996	5.794666666666665	1.0
778.56797331106	0.4543666666666666	5.817733333333332	1.0
778.56797331106	0.4543666666666666	5.769866666666667	1.0
778.56797331106	0.4654333333333332	5.769866666666667	1.0
778.56797331106	0.4513	5.712266666666666	1.0
778.56797331106	0.477	5.894399999999999	1.0
778.56797331106	0.47846666666666654	5.884933333333334	1.0
780.0955262671503	0.469	5.7649333333333335	1.0
780.0955262671503	0.46113333333333323	5.600266666666666	1.0
780.0955262671503	0.4623333333333333	5.876933333333333	1.0
780.8175189801815	0.5049666666666666	6.144266666666668	1.0
780.8175189801815	0.48106666666666664	5.917999999999999	1.0
781.2689632582612	0.4456333333333333	5.419333333333334	1.0
781.2689632582612	0.4456333333333333	5.432666666666666	1.0
781.2689632582612	0.44593333333333324	5.449466666666667	1.0
781.3555269327767	0.4490333333333333	5.449466666666667	1.0
781.3555269327767	0.49559999999999993	6.132799999999999	1.0
781.3555269327767	0.5028666666666666	6.2332	1.0
781.632516173223	0.49579999999999996	6.059066666666666	1.0
781.632516173223	0.48899999999999993	6.028266666666667	1.0
781.7186908302657	0.4827666666666666	5.865466666666666	1.0
781.7186908302657	0.4532999999999998	5.6244	1.0
781.7186908302657	0.5201333333333333	6.0902666666666665	1.0
782.895495168854	0.4981999999999999	6.018266666666666	1.0
782.895495168854	0.4909333333333332	5.868799999999999	1.0
782.895495168854	0.4909333333333332	5.8964	1.0
783.1719175610888	0.49323333333333325	5.636266666666667	1.0
783.1719175610888	0.4777666666666666	5.636266666666667	1.0
783.1719175610888	0.4520666666666665	5.424000000000001	1.0
783.1719175610888	0.5106999999999999	5.987066666666666	1.0
783.1719175610888	0.49179999999999996	5.834133333333333	1.0
784.354501476953	0.5141666666666664	6.171333333333334	1.0
784.354501476953	0.4990333333333333	5.861066666666667	1.0
784.354501476953	0.4834333333333332	5.7001333333333335	1.0
784.4426609588692	0.46926666666666655	5.466666666666667	1.0
784.4426609588692	0.47329999999999994	5.4058666666666655	1.0
784.4426609588692	0.5200333333333333	5.932933333333333	1.0
784.7179515412532	0.5200333333333333	6.4076	1.0
784.7179515412532	0.5550666666666666	6.4076	1.0
784.7179515412532	0.5596333333333333	6.435733333333334	1.0
784.8062081863998	0.5515999999999999	6.358666666666669	1.0
784.8062081863998	0.5427666666666666	6.2836	1.0
784.8950013671054	0.5058999999999999	5.875733333333334	1.0
784.8950013671054	0.48653333333333326	5.561599999999999	1.0
784.8950013671054	0.5150333333333333	5.878133333333333	1.0
785.9969206804151	0.5403999999999999	6.158533333333333	1.0
785.9969206804151	0.5445999999999999	6.0822666666666665	1.0
785.9969206804151	0.5685666666666667	6.2792	1.0
786.2729623311703	0.5684666666666666	6.281199999999999	1.0
786.2729623311703	0.5684666666666666	6.117466666666667	1.0
786.2729623311703	0.5588666666666665	6.117466666666667	1.0
786.7293568555499	0.5874666666666666	6.393066666666667	1.0
786.7293568555499	0.6105999999999999	6.557866666666667	1.0
787.5520871764274	0.6448666666666666	6.692	1.0
787.5520871764274	0.6066666666666667	6.395733333333334	1.0
787.5520871764274	0.5846	6.021466666666667	1.0
787.5520871764274	0.5890333333333333	6.102266666666668	1.0
787.5520871764274	0.6504666666666666	6.605066666666667	1.0
787.5520871764274	0.6687333333333334	6.848933333333333	1.0
787.5520871764274	0.6617	6.842	1.0
787.5520871764274	0.6617	6.516666666666667	1.0
787.5520871764274	0.6342666666666665	6.516666666666667	1.0
787.5520871764274	0.5903999999999999	5.9757333333333325	1.0
787.5520871764274	0.5982999999999998	5.9372	1.0
788.1007647414333	0.5921333333333333	5.889333333333332	1.0
788.1007647414333	0.5767666666666665	5.8642666666666665	1.0
788.1007647414333	0.6789333333333334	6.366400000000001	1.0
789.4865180577403	0.6794999999999999	6.284933333333333	1.0
789.4865180577403	0.6768333333333334	6.087333333333333	1.0
789.4865180577403	0.6761666666666666	6.077866666666666	1.0
789.4858325124279	0.6798666666666666	6.084399999999999	1.0
789.4858325124279	0.6798666666666666	6.133066666666667	1.0
788.1014024866704	0.6700333333333333	6.789733333333333	1.0
787.6427165837594	0.6464666666666666	6.622000000000001	1.0
787.6427165837594	0.5911	6.0641333333333325	1.0
787.5520971018376	0.5713666666666666	5.834666666666667	1.0
787.5520971018376	0.5713666666666666	5.952133333333333	1.0
787.5520971018376	0.5717999999999999	5.952133333333333	1.0
786.4491844459088	0.6025666666666666	6.347333333333333	1.0
786.4491844459088	0.5985333333333333	6.523333333333333	1.0
786.4491844459088	0.6011666666666665	6.503466666666666	1.0
786.2709285102976	0.5571666666666667	6.1441333333333334	1.0
786.2709285102976	0.56	6.237066666666666	1.0
786.2709285102976	0.5512333333333332	6.264666666666667	1.0
786.0851272436871	0.5441666666666667	6.139600000000001	1.0
786.0851272436871	0.5352333333333332	5.9852	1.0
784.8982001472953	0.5094666666666666	5.9136	1.0
784.8982001472953	0.5094666666666666	5.8236	1.0
784.8982001472953	0.5094333333333333	6.0796	1.0
784.8061207151102	0.5209666666666666	6.0796	1.0
784.8061207151102	0.5449333333333332	6.429333333333334	1.0
784.8061207151102	0.5635333333333331	6.5444	1.0
784.5295901370631	0.5391333333333332	6.243866666666667	1.0
784.5295901370631	0.5073333333333333	5.8416	1.0
784.4406045400099	0.4707666666666666	5.505466666666666	1.0
784.4406045400099	0.47116666666666657	5.486400000000001	1.0
784.4406045400099	0.5003	5.761466666666667	1.0
784.4406045400099	0.5140333333333332	5.976399999999999	1.0
784.4406045400099	0.4846333333333333	5.578133333333333	1.0
783.622535097744	0.4846333333333333	6.031866666666667	1.0
783.622535097744	0.5092333333333333	5.7834666666666665	1.0
783.622535097744	0.49163333333333326	5.7834666666666665	1.0
783.1720728625576	0.47379999999999994	5.755600000000001	1.0
783.1720728625576	0.49163333333333326	5.8616	1.0
783.1720728625576	0.5195333333333333	6.223199999999999	1.0
782.808577337603	0.5047999999999999	6.061199999999999	1.0
782.808577337603	0.4948333333333333	5.8945333333333325	1.0
781.7158743919056	0.4768999999999999	5.871466666666666	1.0
781.7158743919056	0.46896666666666664	5.954933333333333	1.0
781.7158743919056	0.5001999999999999	6.172533333333333	1.0
781.631817390032	0.4875333333333333	6.055066666666667	1.0
781.631817390032	0.4875333333333333	5.7703999999999995	1.0
781.3548039797711	0.47836666666666666	5.499733333333333	1.0
781.3548039797711	0.45869999999999994	5.499733333333333	1.0
781.3548039797711	0.4469333333333333	5.5468	1.0
781.2698506694392	0.4574666666666666	5.444133333333334	1.0
781.2698506694392	0.43816666666666665	5.4844	1.0
781.2698506694392	0.4701666666666665	5.767866666666667	1.0
780.903481349309	0.4926999999999999	5.977733333333333	1.0
780.903481349309	0.48419999999999996	6.0612	1.0
780.903481349309	0.4823666666666666	6.026933333333334	1.0
780.903481349309	0.44343333333333323	5.4981333333333335	1.0
780.903481349309	0.44343333333333323	5.2561333333333335	1.0
779.7340645538253	0.42293333333333333	5.4152	1.0
779.7340645538253	0.4327999999999999	5.4152	1.0
779.7340645538253	0.4779333333333332	5.888533333333333	1.0
778.5687397612811	0.4533999999999999	5.765200000000001	1.0
778.5687397612811	0.4726333333333333	6.121200000000001	1.0
778.4839651232286	0.47569999999999996	6.130266666666667	1.0
778.4839651232286	0.4748666666666666	5.948133333333334	1.0
778.4839651232286	0.4583999999999999	5.8874666666666675	1.0
778.3960640927926	0.4321	5.593466666666666	1.0
778.3960640927926	0.41403333333333325	5.222266666666666	1.0
778.2096389083555	0.41586666666666666	5.165333333333333	1.0
778.2096389083555	0.41586666666666666	5.601466666666667	1.0
778.2096389083555	0.4470999999999999	5.750266666666667	1.0
777.6331785686237	0.45156666666666656	5.750266666666667	1.0
777.6331785686237	0.44933333333333325	5.619733333333333	1.0
777.6331785686237	0.4328999999999999	5.4852	1.0
777.4031698135336	0.4320999999999999	5.400666666666666	1.0
777.4031698135336	0.44059999999999994	5.436000000000001	1.0
777.0453802761901	0.4212666666666667	5.291333333333333	1.0
777.0453802761901	0.42629999999999996	5.318266666666667	1.0
777.0453802761901	0.4227999999999999	5.2488	1.0
776.68698048738	0.4475333333333333	5.711333333333333	1.0
776.68698048738	0.4475333333333333	5.845866666666666	1.0
776.68698048738	0.4521666666666666	5.223466666666667	1.0
776.5145351242948	0.4223666666666666	5.223466666666667	1.0
776.5145351242948	0.4298333333333333	5.4288	1.0
775.4444541602254	0.4443666666666666	5.928	1.0
775.4444541602254	0.46103333333333324	5.935866666666667	1.0
775.4444541602254	0.4571999999999999	5.7068	1.0
775.0869718455018	0.4104333333333332	5.189866666666667	1.0
775.0869718455018	0.3841666666666666	4.827866666666667	1.0
775.0867662524533	0.39086666666666664	4.759466666666667	1.0
775.0867662524533	0.3943999999999999	4.842533333333333	1.0
775.0867662524533	0.43373333333333325	5.375333333333333	1.0
774.9982111493713	0.43373333333333325	5.633466666666666	1.0
774.9982111493713	0.4476333333333332	5.633466666666666	1.0
774.9982111493713	0.40966666666666657	5.1924	1.0
774.2875994474196	0.3999999999999999	5.068133333333333	1.0
774.2875994474196	0.43353333333333327	5.362399999999999	1.0
773.8468990286037	0.43316666666666664	5.362399999999999	1.0
773.8468990286037	0.3994333333333333	5.056266666666667	1.0
773.8468990286037	0.40443333333333326	5.017466666666666	1.0
773.4928526463892	0.43623333333333325	5.559066666666666	1.0
773.4928526463892	0.4671333333333333	5.955066666666666	1.0
773.4928526463892	0.46069999999999994	5.668933333333333	1.0
772.4277867378242	0.46069999999999994	5.5972	1.0
772.4277867378242	0.4551666666666666	5.7068	1.0
772.0741228312652	0.4597666666666665	5.7068	1.0
772.0741228312652	0.4182333333333333	5.165066666666666	1.0
772.0741228312652	0.39126666666666665	4.770933333333334	1.0
771.90422930011	0.39593333333333325	4.850666666666666	1.0
771.90422930011	0.4354666666666666	5.4388	1.0
771.5506137795845	0.4490999999999999	5.453600000000001	1.0
771.5506137795845	0.4084333333333333	4.9206666666666665	1.0
771.5506137795845	0.3868666666666666	4.740666666666667	1.0
771.1963106805171	0.4342	5.3768	1.0
771.1963106805171	0.3948666666666666	4.8566666666666665	1.0
771.1963106805171	0.3948666666666666	4.937733333333333	1.0
770.761110285907	0.4118333333333333	5.020533333333333	1.0
770.761110285907	0.42049999999999993	5.020533333333333	1.0
770.4097513735693	0.4171666666666666	5.1012	1.0
770.4097513735693	0.4158333333333333	5.1029333333333335	1.0
770.4097513735693	0.40879999999999994	4.877999999999999	1.0
769.2688095047757	0.4303999999999999	5.074933333333333	1.0
769.2688095047757	0.4544666666666666	5.497733333333333	1.0
769.2688095047757	0.40383333333333327	4.8634666666666675	1.0
769.0010219547926	0.40863333333333324	4.855733333333332	1.0
769.0010219547926	0.4333666666666666	5.067200000000001	1.0
768.8360011598579	0.43379999999999985	5.345733333333334	1.0
768.8360011598579	0.43379999999999985	5.411333333333332	1.0
768.8360011598579	0.4616333333333333	5.411333333333332	1.0
768.4001945126163	0.4398333333333333	5.318933333333333	1.0
768.4001945126163	0.4326333333333332	5.14	1.0
768.1316450434554	0.4051999999999999	4.950799999999999	1.0
768.1316450434554	0.4270666666666666	5.067200000000001	1.0
768.1316450434554	0.40079999999999993	4.6168	1.0
767.6970888265403	0.3919666666666666	4.593333333333334	1.0
767.6970888265403	0.40433333333333327	4.786933333333333	1.0
767.6970888265403	0.4232666666666666	4.973999999999999	1.0
767.4333058576282	0.42959999999999987	4.907333333333333	1.0
767.4333058576282	0.42959999999999987	4.7645333333333335	1.0
766.9989791405294	0.4126666666666666	4.7645333333333335	1.0
766.9989791405294	0.4032666666666666	4.76	1.0
766.9989791405294	0.41396666666666654	4.745866666666667	1.0
765.954903037789	0.42163333333333325	4.887466666666666	1.0
765.954903037789	0.40779999999999994	4.625866666666667	1.0
765.8730640350467	0.39209999999999995	4.316	1.0
765.8730640350467	0.37949999999999995	4.215066666666667	1.0
765.8730640350467	0.3765333333333333	4.198666666666666	1.0
765.7885556488498	0.4027666666666666	4.444133333333333	1.0
765.7885556488498	0.4148666666666666	4.6903999999999995	1.0
765.7885556488498	0.4148666666666666	4.507866666666667	1.0
765.7885556488498	0.3941333333333333	4.600266666666666	1.0
765.7885556488498	0.40626666666666655	4.600266666666666	1.0
765.0089069453614	0.4218333333333333	4.850133333333333	1.0
765.0089069453614	0.4001666666666666	4.520666666666667	1.0
765.0089069453614	0.4083333333333332	4.686933333333334	1.0
764.9241704030968	0.3983666666666666	4.612	1.0
764.9241704030968	0.41056666666666664	4.6205333333333325	1.0
764.9241704030968	0.41879999999999995	4.701333333333333	1.0
764.3970459876767	0.4176999999999999	4.693733333333333	1.0
764.3970459876767	0.4265666666666666	4.665733333333334	1.0
763.9702393364365	0.40343333333333325	4.462000000000001	1.0
763.9702393364365	0.40343333333333325	4.363466666666668	1.0
763.9702393364365	0.3969999999999999	4.363466666666668	1.0
763.9698442528656	0.38649999999999995	4.343066666666668	1.0
763.9698442528656	0.3822999999999999	4.2816	1.0
763.1955449474656	0.4025999999999999	4.4616	1.0
763.1955449474656	0.4105999999999999	4.6276	1.0
763.1955449474656	0.4078666666666666	4.557733333333333	1.0
762.766205566971	0.41929999999999995	4.574666666666667	1.0
762.766205566971	0.4139666666666666	4.559866666666667	1.0
762.766205566971	0.40556666666666663	4.520133333333333	1.0
762.7657395218419	0.3892	4.263066666666667	1.0
762.7657395218419	0.3892	4.452533333333334	1.0
762.077987823609	0.40683333333333327	4.663333333333333	1.0
762.077987823609	0.42219999999999996	4.663333333333333	1.0
762.077987823609	0.4049666666666666	4.392666666666667	1.0
762.0756958816337	0.3945333333333333	4.3116	1.0
762.0756958816337	0.39546666666666663	4.299733333333333	1.0
762.0756958816337	0.4176999999999999	4.404933333333334	1.0
762.07640088686	0.40806666666666663	4.3213333333333335	1.0
762.07640088686	0.39906666666666657	4.277466666666666	1.0
761.9658285185268	0.4002666666666666	4.244666666666667	1.0
761.9658285185268	0.3949666666666666	4.2272	1.0
761.9658285185268	0.3996666666666666	4.173733333333333	1.0
757.5588324640855	0.3996666666666666	4.1378666666666675	1.0
757.5588324640855	0.40479999999999994	4.0648	1.0
757.5554892914029	0.40119999999999995	4.0648	1.0
757.5554892914029	0.3918999999999999	4.009066666666667	1.0
757.5554892914029	0.38769999999999993	3.9233333333333333	1.0
757.215259477689	0.40523333333333333	4.2544	1.0
757.215259477689	0.4371	4.478666666666667	1.0
757.215259477689	0.43656666666666655	4.456666666666667	1.0
757.1354176090634	0.43629999999999997	4.457466666666667	1.0
757.1354176090634	0.4474666666666666	4.624666666666667	1.0
756.7954823905894	0.44399999999999995	4.619866666666667	1.0
756.7954823905894	0.44399999999999995	4.187733333333334	1.0
756.7954823905894	0.4086666666666666	4.199733333333333	1.0
756.7955149096853	0.41543333333333327	4.199733333333333	1.0
756.7955149096853	0.4125666666666666	4.199733333333333	1.0
756.7955149096853	0.4145999999999999	4.271066666666666	1.0
756.4552483795991	0.43366666666666653	4.439066666666667	1.0
756.4552483795991	0.42169999999999996	4.2645333333333335	1.0
756.1177860226234	0.4155999999999999	4.1628	1.0
756.1177860226234	0.4192333333333333	4.191466666666667	1.0
756.1177860226234	0.4269999999999999	4.2176	1.0
756.1156911639365	0.4172666666666666	4.170933333333334	1.0
756.1156911639365	0.4007333333333332	3.9830666666666663	1.0
756.1156911639365	0.4007333333333332	4.145333333333333	1.0
755.2746394933886	0.4128333333333332	4.145333333333333	1.0
755.2746394933886	0.4326666666666666	4.284	1.0
754.9425170798495	0.3903999999999999	3.9568	1.0
754.9425170798495	0.41619999999999996	4.127466666666668	1.0
754.9425170798495	0.43853333333333333	4.2889333333333335	1.0
754.9425170798495	0.43526666666666664	4.346666666666668	1.0
754.9425170798495	0.4523666666666666	4.4981333333333335	1.0
754.9425170798495	0.455	4.4850666666666665	1.0
754.9425170798495	0.4130999999999999	4.084266666666667	1.0
754.9425170798495	0.4204666666666666	4.085466666666667	1.0
753.5057443617287	0.4204666666666666	4.281333333333333	1.0
753.5057443617287	0.4413666666666666	4.4901333333333335	1.0
753.5057443617287	0.45923333333333327	4.4901333333333335	1.0
753.1707835641595	0.4597666666666666	4.4532	1.0
753.1707835641595	0.45076666666666665	4.279866666666667	1.0
752.7525095800866	0.44026666666666664	4.280533333333334	1.0
752.7525095800866	0.4446	4.184666666666666	1.0
752.7525095800866	0.4367666666666666	4.0864	1.0
752.3368985883802	0.4369333333333333	4.1496	1.0
752.3368985883802	0.4321999999999999	4.002933333333333	1.0
752.3368985883802	0.4296666666666666	4.058666666666666	1.0
751.9997603004058	0.4354	4.118266666666667	1.0
751.9997603004058	0.4354	4.113866666666667	1.0
751.9997603004058	0.44823333333333326	4.113866666666667	1.0
751.9997603004058	0.4471666666666666	4.237333333333334	1.0
751.9997603004058	0.47609999999999997	4.458933333333334	1.0
751.330965257783	0.48129999999999995	4.450666666666668	1.0
751.330965257783	0.4372333333333332	4.1513333333333335	1.0
751.330965257783	0.43113333333333326	3.9716	1.0
750.920065422745	0.4465333333333333	4.0242666666666675	1.0
750.920065422745	0.45296666666666663	4.1550666666666665	1.0
750.916972420932	0.4473333333333333	4.276666666666666	1.0
750.916972420932	0.44586666666666663	4.1344	1.0
750.916972420932	0.44586666666666663	3.898399999999999	1.0
750.916972420932	0.42606666666666654	4.0498666666666665	1.0
750.916972420932	0.44033333333333324	4.0498666666666665	1.0
750.916972420932	0.48629999999999995	4.518266666666666	1.0
750.916972420932	0.4836	4.520666666666666	1.0
750.916972420932	0.47609999999999986	4.2668	1.0
