wavelength(nm)	flourescence PMT(V)	ti_saph Power (V)	Gain (V)
801.3714902465023	0.08466666666666661	0.1594666666666668	1.0
801.3714902465023	0.08793333333333328	0.15960000000000016	1.0
801.3714902465023	0.08926666666666662	0.1594666666666668	1.0
801.373286156627	0.08926666666666662	0.15746666666666678	1.0
801.371679883434	0.08556666666666662	0.15893333333333348	1.0
801.3698691615997	0.08959999999999996	0.15893333333333348	1.0
801.3698691615997	0.08109999999999996	0.1594666666666668	1.0
801.3698725856249	0.08553333333333328	0.16000000000000014	1.0
801.3716494698745	0.08569999999999996	0.1593333333333335	1.0
801.3716494698745	0.08699999999999995	0.15960000000000013	1.0
801.3698012449659	0.08716666666666661	0.15973333333333348	1.0
801.3730317476178	0.08509999999999995	0.15880000000000014	1.0
801.3730317476178	0.08929999999999996	0.15933333333333347	1.0
801.3711759432981	0.08396666666666662	0.15880000000000014	1.0
801.2776154264528	0.08636666666666663	0.15960000000000016	1.0
801.3716217864105	0.08636666666666663	0.15853333333333347	1.0
801.3716217864105	0.09216666666666662	0.15813333333333346	1.0
801.2786315907574	0.08726666666666663	0.15813333333333346	1.0
801.3721726321423	0.08796666666666662	0.1594666666666668	1.0
801.3721726321423	0.08909999999999996	0.15933333333333347	1.0
801.3722535998401	0.08343333333333329	0.15893333333333348	1.0
801.3715511640431	0.09016666666666662	0.15973333333333348	1.0
801.3715511640431	0.0911333333333333	0.15986666666666682	1.0
801.3730752840604	0.08949999999999994	0.16000000000000014	1.0
801.373249142793	0.0879333333333333	0.15960000000000013	1.0
801.373249142793	0.09099999999999997	0.16000000000000014	1.0
801.371685147841	0.0912333333333333	0.1570666666666668	1.0
801.3716058365501	0.0912333333333333	0.15493333333333348	1.0
801.2789385230329	0.08559999999999995	0.15493333333333348	1.0
801.2789385230329	0.0860333333333333	0.1574666666666668	1.0
801.3726660266966	0.08989999999999997	0.16013333333333346	1.0
801.3715395774273	0.0886333333333333	0.16000000000000014	1.0
801.3715395774273	0.09083333333333328	0.16000000000000014	1.0
802.70519600762	0.1244666666666666	1.3309333333333333	1.0
802.7016453463763	0.12819999999999993	1.3825333333333334	1.0
802.7016453463763	0.1301333333333333	1.3997333333333335	1.0
804.2369408138946	0.15633333333333327	2.1952	1.0
804.236738177495	0.2359666666666666	4.0504	1.0
804.236986696048	0.22303333333333322	4.021999999999999	1.0
804.236986696048	0.22303333333333322	3.9686666666666666	1.0
804.2357021374547	0.22893333333333327	3.9686666666666666	1.0
804.2366610572146	0.2224666666666666	3.9165333333333336	1.0
804.2366610572146	0.22756666666666656	3.880666666666666	1.0
804.4336659837048	0.2211999999999999	3.9311999999999996	1.0
804.4363568150537	0.23766666666666655	4.180133333333333	1.0
804.4363568150537	0.24103333333333324	4.476266666666667	1.0
804.6216770730717	0.25113333333333326	4.6804	1.0
804.5254449339059	0.2698999999999999	4.863333333333333	1.0
804.6236073654177	0.26169999999999993	4.89	1.0
804.6236073654177	0.2542999999999999	4.751333333333334	1.0
804.7145506492496	0.24669999999999986	4.500533333333333	1.0
804.7129405602285	0.24669999999999986	4.3936	1.0
804.7129405602285	0.23753333333333326	4.284933333333333	1.0
805.9591853283063	0.23623333333333327	4.284933333333333	1.0
805.9600987190408	0.25846666666666657	4.693866666666667	1.0
805.9600987190408	0.2574999999999999	4.770133333333334	1.0
806.1577226547694	0.26326666666666654	4.820399999999999	1.0
806.0722622693579	0.2637999999999999	4.782533333333334	1.0
806.0722622693579	0.2519333333333333	4.744266666666667	1.0
807.1242778595575	0.2685666666666666	4.959866666666667	1.0
807.6028332478336	0.2507999999999999	4.733333333333333	1.0
807.5989893451167	0.24633333333333327	4.558133333333333	1.0
807.5989893451167	0.24556666666666657	4.525333333333333	1.0
807.5988631642504	0.24556666666666657	4.5416	1.0
807.8926337109873	0.24309999999999987	4.5416	1.0
807.8926337109873	0.2673999999999999	4.992800000000001	1.0
807.899811308839	0.2859999999999999	5.241466666666667	1.0
807.8935936507615	0.2836666666666666	5.250666666666666	1.0
807.8935936507615	0.27343333333333325	5.116933333333334	1.0
807.8926190200251	0.2690999999999999	4.9989333333333335	1.0
807.9877686188222	0.2661333333333332	4.857066666666666	1.0
807.9878268896119	0.2622999999999999	4.857466666666666	1.0
807.9878268896119	0.2559999999999999	4.874	1.0
807.9887186424866	0.26416666666666655	4.9048	1.0
808.286001165094	0.26416666666666655	4.652	1.0
808.286001165094	0.24953333333333325	4.6193333333333335	1.0
808.286001165094	0.2513999999999999	4.6193333333333335	1.0
809.4463868699062	0.25043333333333323	4.597866666666667	1.0
809.4463868699062	0.2881666666666666	5.400133333333333	1.0
809.4473329061752	0.2897666666666666	5.3724	1.0
809.4536101384389	0.27656666666666657	5.342533333333333	1.0
809.9300760273389	0.26896666666666663	5.016133333333333	1.0
809.9300760273389	0.25946666666666657	4.986666666666666	1.0
810.5153445186828	0.2734999999999999	5.220933333333334	1.0
811.1003350338841	0.26639999999999997	5.121466666666667	1.0
811.1003350338841	0.2566666666666666	4.8656	1.0
811.1014250841624	0.2566666666666666	4.838666666666667	1.0
811.101352388966	0.25333333333333324	4.9264	1.0
811.101352388966	0.25533333333333325	4.9264	1.0
811.19207790731	0.26666666666666655	5.09	1.0
811.2946613320186	0.26906666666666657	5.242	1.0
811.2925822605304	0.2645999999999999	5.209333333333333	1.0
811.2925822605304	0.26219999999999993	5.154666666666667	1.0
811.4936278254551	0.2668999999999999	5.116933333333333	1.0
811.2555174288295	0.2596666666666666	5.1908	1.0
811.2555174288295	0.2667666666666666	5.239733333333333	1.0
811.4928723160923	0.27109999999999995	5.325866666666666	1.0
811.6821727692106	0.26166666666666655	5.261333333333334	1.0
811.6821727692106	0.26166666666666655	5.2548	1.0
811.7812438394	0.26773333333333327	5.278666666666666	1.0
811.782700099399	0.2719666666666666	5.278666666666666	1.0
811.782700099399	0.26856666666666656	5.294933333333334	1.0
812.9561937105948	0.2683999999999999	5.284133333333333	1.0
812.8580918783525	0.2599999999999999	5.121200000000001	1.0
812.9582287451645	0.25659999999999994	4.985466666666667	1.0
812.9582287451645	0.25626666666666653	5.0376	1.0
812.9573903548869	0.25796666666666657	5.1240000000000006	1.0
814.5272157113701	0.27256666666666657	5.4148000000000005	1.0
814.5272157113701	0.2582666666666666	5.528666666666665	1.0
814.5267923850489	0.2686666666666666	5.5604	1.0
814.525428002468	0.2686666666666666	5.5684	1.0
814.525428002468	0.2685999999999999	5.406	1.0
814.7207311402385	0.26456666666666656	5.406	1.0
814.7218277750687	0.24349999999999988	4.976399999999999	1.0
814.7207462585744	0.2488999999999999	4.766266666666667	1.0
814.7207462585744	0.24409999999999993	4.7783999999999995	1.0
815.114058843172	0.26306666666666656	5.250666666666666	1.0
815.1131041702711	0.2720999999999999	5.719866666666666	1.0
815.1131041702711	0.2648999999999999	5.719866666666666	1.0
815.11408379183	0.28443333333333326	5.720133333333333	1.0
815.1131321812765	0.2673999999999999	5.7244	1.0
815.1131321812765	0.2674666666666666	5.7316	1.0
815.1131664031262	0.2674666666666666	5.749733333333333	1.0
815.3171541764178	0.2738666666666666	5.910266666666667	1.0
816.2992796014374	0.2753666666666666	5.910266666666667	1.0
816.2992796014374	0.2601333333333332	5.4450666666666665	1.0
817.4891407847789	0.25599999999999995	5.231999999999999	1.0
817.4891497521176	0.2565999999999999	5.448533333333333	1.0
817.4891497521176	0.2540333333333333	5.642666666666666	1.0
817.4880763695119	0.25259999999999994	5.651599999999999	1.0
817.6271287050283	0.24666666666666656	5.6369333333333325	1.0
817.6271287050283	0.2530333333333332	5.593466666666666	1.0
817.6271287050283	0.24119999999999991	5.768400000000001	1.0
818.2824687972303	0.2560666666666666	5.7568	1.0
818.2780385554515	0.2560666666666666	5.720933333333334	1.0
818.2780385554515	0.2505333333333332	5.799333333333334	1.0
818.285709545406	0.2612999999999999	5.799333333333334	1.0
818.2875664869354	0.24803333333333322	5.744000000000001	1.0
818.2875664869354	0.2501666666666666	5.72	1.0
818.5846650606495	0.24723333333333325	5.440933333333334	1.0
818.6834537071261	0.23556666666666654	5.138933333333333	1.0
818.6834537071261	0.2272999999999999	4.984400000000001	1.0
818.686182948687	0.22543333333333324	4.989333333333334	1.0
819.6717144867007	0.22976666666666654	4.960133333333333	1.0
819.8803447613227	0.23286666666666658	5.1593333333333335	1.0
819.8803447613227	0.23013333333333327	5.306133333333333	1.0
820.4720299691446	0.23013333333333327	5.566399999999999	1.0
820.4735450263316	0.23813333333333322	5.4976	1.0
820.4735450263316	0.22876666666666656	5.4976	1.0
820.7765684027233	0.2298333333333332	5.401466666666666	1.0
820.9711736172603	0.22419999999999993	5.425866666666668	1.0
820.9711736172603	0.2265999999999999	5.490933333333334	1.0
820.9711736172603	0.22443333333333323	5.3968	1.0
821.7708292188096	0.22233333333333324	5.323999999999999	1.0
821.580641545546	0.21766666666666656	5.426666666666667	1.0
821.580641545546	0.22313333333333324	5.47	1.0
821.7693731856469	0.22939999999999988	5.661066666666667	1.0
821.9779054707504	0.22163333333333327	5.720533333333335	1.0
821.9779054707504	0.22163333333333327	5.7632	1.0
822.1718985720654	0.23796666666666658	5.7632	1.0
822.1709460227921	0.23083333333333325	5.717599999999999	1.0
822.1709460227921	0.22176666666666658	5.735466666666667	1.0
822.1709460227921	0.23089999999999994	5.790800000000001	1.0
822.1737968145699	0.23066666666666658	5.802666666666667	1.0
822.1742291312753	0.23183333333333322	5.858266666666666	1.0
822.1742291312753	0.23696666666666658	5.908533333333333	1.0
823.4814370220922	0.22863333333333324	6.0756000000000006	1.0
823.481426707311	0.22566666666666657	5.752666666666667	1.0
823.481426707311	0.21733333333333324	5.683866666666666	1.0
823.880129118034	0.21733333333333324	5.939466666666665	1.0
823.8821108560169	0.23146666666666657	5.971066666666666	1.0
823.8821108560169	0.21403333333333321	5.971066666666666	1.0
823.7821180958997	0.2185999999999999	5.944399999999999	1.0
824.287968271673	0.2202999999999999	5.922133333333333	1.0
824.287968271673	0.21893333333333326	5.992	1.0
824.3854855522636	0.21293333333333325	5.961066666666666	1.0
824.9944098620358	0.20653333333333324	5.935733333333332	1.0
824.9956962186766	0.1997999999999999	5.566133333333332	1.0
824.9956962186766	0.1949999999999999	5.612666666666666	1.0
824.9937605247019	0.19833333333333325	5.7700000000000005	1.0
824.9937605247019	0.20693333333333325	5.9924	1.0
824.9937605247019	0.20693333333333325	6.324266666666667	1.0
825.4013979205105	0.20953333333333324	6.008266666666666	1.0
825.5985946477746	0.20103333333333326	6.008266666666666	1.0
825.5985946477746	0.19763333333333324	5.535333333333333	1.0
825.6002872448705	0.19193333333333326	5.3552	1.0
825.8011550053021	0.19513333333333327	5.433066666666667	1.0
826.1024794839316	0.1944999999999999	5.573733333333333	1.0
826.1024794839316	0.1951999999999999	5.662799999999999	1.0
826.1036079316639	0.18999999999999992	5.663466666666666	1.0
826.1036079316639	0.19959999999999992	5.8988	1.0
826.1036079316639	0.1989666666666666	6.2196	1.0
826.9811230920806	0.19203333333333325	6.031866666666667	1.0
826.9811230920806	0.19203333333333325	5.824933333333333	1.0
826.9811230920806	0.19776666666666656	5.777733333333332	1.0
827.1259484473863	0.1884666666666666	5.777733333333332	1.0
828.0321880732122	0.19033333333333324	5.716399999999999	1.0
828.0320597049559	0.1777666666666666	5.679199999999999	1.0
828.0320597049559	0.1787999999999999	5.573333333333332	1.0
828.0383850026465	0.17916666666666659	5.539066666666666	1.0
828.2987628480322	0.18249999999999994	5.713733333333333	1.0
828.2987628480322	0.18199999999999994	5.9296	1.0
828.8532721075857	0.18166666666666656	5.9632	1.0
828.8535395990001	0.1785666666666666	5.940799999999999	1.0
828.8535395990001	0.18426666666666658	6.156666666666666	1.0
829.2606831710958	0.18426666666666658	6.244933333333333	1.0
829.2617178658166	0.18516666666666656	6.244266666666666	1.0
829.2579276177557	0.19136666666666657	6.244266666666666	1.0
829.2579276177557	0.18043333333333325	6.236533333333333	1.0
829.4609675475265	0.18159999999999993	6.2276	1.0
829.4614932638536	0.18693333333333326	6.374533333333336	1.0
829.4614932638536	0.1859999999999999	6.209066666666666	1.0
830.1791067155157	0.17793333333333328	6.034133333333333	1.0
830.0782291966466	0.16939999999999994	5.854	1.0
830.0782291966466	0.18059999999999993	5.846666666666667	1.0
830.3830893278525	0.1714666666666666	5.899733333333333	1.0
830.1804250217028	0.1711666666666666	5.780400000000001	1.0
830.4816917370257	0.1711666666666666	5.8052	1.0
830.4816917370257	0.16586666666666658	5.848533333333333	1.0
830.4816832287227	0.17503333333333326	5.848533333333333	1.0
831.2077181513863	0.1716666666666666	5.942399999999999	1.0
831.2077181513863	0.17459999999999992	6.167333333333333	1.0
831.5093410745683	0.17029999999999995	5.9068	1.0
831.5112244137939	0.16049999999999992	5.667999999999998	1.0
831.5112244137939	0.16646666666666662	5.697466666666666	1.0
831.5064466424936	0.16899999999999993	5.8642666666666665	1.0
831.9215551958475	0.16853333333333326	6.305066666666668	1.0
832.5337780534578	0.16829999999999992	6.587333333333334	1.0
832.5337780534578	0.1671666666666666	6.356933333333335	1.0
832.745133812601	0.1671666666666666	6.370266666666667	1.0
832.6411348126222	0.16589999999999994	6.311333333333334	1.0
832.6411348126222	0.15863333333333327	6.311333333333334	1.0
832.8412013793609	0.1628666666666666	6.290799999999999	1.0
832.9470985416488	0.15503333333333327	6.0334666666666665	1.0
832.9470985416488	0.15883333333333327	6.133466666666666	1.0
832.9488102867219	0.16166666666666657	6.343733333333335	1.0
833.0497136067862	0.1626333333333333	6.398800000000001	1.0
833.3570531414973	0.15443333333333328	6.341333333333334	1.0
833.3570531414973	0.1556666666666666	6.212533333333333	1.0
833.3567565596896	0.15936666666666657	6.106533333333333	1.0
833.9778839063608	0.1633666666666666	6.232399999999999	1.0
833.9778839063608	0.1633666666666666	6.0928	1.0
833.9807851674336	0.14873333333333327	5.934133333333333	1.0
833.9825862390461	0.16316666666666657	5.934133333333333	1.0
833.9825862390461	0.14836666666666662	5.7376000000000005	1.0
834.4935092500413	0.15819999999999992	6.089733333333333	1.0
834.599620954199	0.16083333333333327	6.193066666666667	1.0
834.9083542364563	0.14793333333333328	6.031866666666667	1.0
834.9083542364563	0.1635999999999999	6.3064	1.0
834.9086125499895	0.1621666666666666	6.572266666666667	1.0
835.4271098417667	0.1676999999999999	6.388666666666668	1.0
835.4271098417667	0.17239999999999991	6.574666666666667	1.0
835.4267076839666	0.16559999999999994	6.745066666666666	1.0
835.4270014724455	0.17429999999999993	6.937466666666666	1.0
835.4270014724455	0.17429999999999993	6.935066666666665	1.0
835.7375523492129	0.17949999999999994	6.830666666666666	1.0
836.3583413659948	0.18703333333333325	6.830666666666666	1.0
836.3583413659948	0.1922999999999999	6.4928	1.0
836.3583413659948	0.18893333333333323	6.376800000000001	1.0
836.5770241103606	0.1974666666666666	6.3601333333333345	1.0
836.7768924715842	0.20916666666666658	6.360666666666668	1.0
836.7768924715842	0.21913333333333326	6.5582666666666665	1.0
837.0904234007487	0.23163333333333322	6.8284	1.0
837.0991186248467	0.23819999999999988	7.012266666666668	1.0
837.0991186248467	0.23776666666666663	6.952266666666666	1.0
837.0858990059073	0.2531333333333332	7.0332	1.0
837.1910599034406	0.2531333333333332	6.7628	1.0
837.5062686279526	0.24193333333333328	6.6112	1.0
837.5062686279526	0.2497999999999999	6.6112	1.0
837.8242469419722	0.2600333333333333	6.460266666666667	1.0
837.922354592631	0.2768666666666666	6.345066666666668	1.0
837.922354592631	0.28716666666666657	6.504	1.0
837.9191867064121	0.3055666666666666	6.637466666666667	1.0
838.4474419719662	0.32119999999999993	6.510800000000001	1.0
838.4474419719662	0.32933333333333326	6.5256	1.0
838.4469708521922	0.34529999999999994	6.566266666666667	1.0
838.9712429230952	0.3621666666666666	6.6575999999999995	1.0
838.9621595724609	0.4084999999999999	6.722266666666668	1.0
838.9621595724609	0.4084999999999999	6.534	1.0
839.3820513282459	0.43436666666666657	6.626133333333334	1.0
839.5332110987604	0.4505666666666665	6.626133333333334	1.0
839.5332110987604	0.4571333333333333	6.717733333333333	1.0
834.6934195843812	0.5633999999999999	6.670800000000001	1.0
839.2850588131114	0.4522666666666665	6.755466666666668	1.0
839.1780926278029	0.45479999999999987	6.684266666666667	1.0
839.1780926278029	0.43946666666666656	6.748266666666667	1.0
839.0760838458696	0.4296666666666666	6.684533333333333	1.0
838.3385121053791	0.3965999999999999	6.635733333333334	1.0
838.3385121053791	0.3633666666666666	6.8068	1.0
838.3385121053791	0.34076666666666655	6.673066666666667	1.0
837.9208549498093	0.2970999999999999	6.4438666666666675	1.0
837.9208549498093	0.2970999999999999	6.6433333333333335	1.0
837.7167046733854	0.29833333333333323	6.700666666666667	1.0
837.7170079992071	0.29389999999999994	6.700666666666667	1.0
837.4078358247156	0.27126666666666654	6.403866666666667	1.0
837.4078358247156	0.2498999999999999	6.197466666666667	1.0
837.4084981738583	0.2496999999999999	6.610266666666667	1.0
837.0911728074617	0.24173333333333322	6.6681333333333335	1.0
837.0911728074617	0.2555333333333332	6.9803999999999995	1.0
837.0892809186167	0.24563333333333323	7.004666666666667	1.0
836.7744030207529	0.23586666666666659	6.9032	1.0
836.7744030207529	0.22826666666666653	6.8552	1.0
836.778267315264	0.22266666666666657	6.737466666666666	1.0
836.1540529835482	0.22266666666666657	6.426666666666668	1.0
835.7384880380528	0.20293333333333324	6.348933333333334	1.0
835.7384880380528	0.18129999999999993	6.348933333333334	1.0
835.7382368700182	0.1926999999999999	6.717733333333333	1.0
835.4265204574781	0.18179999999999993	6.8232	1.0
835.4265204574781	0.17566666666666658	6.804666666666667	1.0
835.426352253026	0.17823333333333327	6.730266666666666	1.0
835.3230586688366	0.16509999999999994	6.403466666666668	1.0
835.3230586688366	0.1568666666666666	6.1424	1.0
834.8139762976482	0.1601666666666666	6.3390666666666675	1.0
834.598215261255	0.16063333333333327	6.717600000000001	1.0
834.5987373157018	0.16606666666666658	6.774266666666667	1.0
834.5987373157018	0.16606666666666658	6.429466666666667	1.0
834.2913007395039	0.15949999999999995	6.3156	1.0
833.8832662804915	0.16416666666666663	6.3156	1.0
833.8832662804915	0.15213333333333326	6.107466666666666	1.0
833.8803452014073	0.16029999999999994	6.100133333333333	1.0
834.0236818700679	0.16219999999999993	6.203333333333333	1.0
834.0236818700679	0.1527666666666666	6.034533333333334	1.0
833.3614174826749	0.16209999999999994	6.08	1.0
833.0533806018769	0.1607666666666666	6.200666666666667	1.0
833.0568277855198	0.15693333333333329	6.332800000000001	1.0
833.0568277855198	0.1603666666666666	6.307066666666667	1.0
833.0548599585898	0.16599999999999995	6.321600000000001	1.0
833.0548599585898	0.16149999999999992	6.261466666666667	1.0
833.0548599585898	0.16149999999999992	6.5044	1.0
832.745514311222	0.16549999999999992	6.5044	1.0
832.2342811416391	0.16199999999999992	6.243333333333333	1.0
832.2342811416391	0.1610666666666666	6.1644	1.0
832.2342811416391	0.17343333333333324	6.545600000000001	1.0
831.511262808308	0.16093333333333326	6.1412	1.0
831.510213331408	0.15696666666666662	5.7114666666666665	1.0
831.510213331408	0.16146666666666662	5.663333333333332	1.0
831.51171247862	0.15803333333333328	5.666399999999999	1.0
830.3823313085512	0.17293333333333327	6.2165333333333335	1.0
830.3823313085512	0.17316666666666658	6.2376000000000005	1.0
830.4880141578687	0.16779999999999995	5.9196	1.0
830.1791064370799	0.16779999999999995	5.818933333333334	1.0
830.1791064370799	0.16963333333333327	6.026	1.0
830.0785112647463	0.17886666666666656	6.026	1.0
829.867933227784	0.17819999999999994	6.147200000000001	1.0
829.4646446969036	0.17339999999999992	5.997733333333334	1.0
829.4646446969036	0.18446666666666658	6.084666666666667	1.0
829.258903959237	0.18953333333333325	6.272266666666667	1.0
829.2617670805323	0.18386666666666657	6.301333333333333	1.0
829.2617670805323	0.1897999999999999	6.308533333333333	1.0
829.2579507316316	0.1810666666666666	6.274933333333332	1.0
828.8532292213902	0.18516666666666656	6.2409333333333326	1.0
828.8532292213902	0.18333333333333326	5.915466666666666	1.0
828.8532292213902	0.17913333333333326	5.882933333333333	1.0
828.854583959871	0.17913333333333326	5.834133333333333	1.0
828.0360845605113	0.1751999999999999	5.639866666666666	1.0
828.0360845605113	0.17563333333333325	5.639866666666666	1.0
828.0364033846527	0.17543333333333327	5.5561333333333325	1.0
828.0364033846527	0.18166666666666656	5.472133333333335	1.0
828.0364033846527	0.17679999999999993	5.465333333333334	1.0
827.1247397340284	0.1822666666666666	5.433999999999999	1.0
827.1174516255371	0.18519999999999992	5.628533333333333	1.0
827.1174516255371	0.18913333333333326	5.9584	1.0
827.1174516255371	0.19299999999999992	5.989866666666667	1.0
826.8135563447534	0.1919666666666666	5.917999999999999	1.0
826.3121811838539	0.18913333333333326	5.827733333333333	1.0
826.3121811838539	0.18913333333333326	6.040266666666667	1.0
826.3102634101182	0.1979999999999999	5.980133333333333	1.0
825.8011498837841	0.20283333333333325	5.980133333333333	1.0
825.8011498837841	0.19106666666666658	5.810533333333334	1.0
825.5971591832617	0.20426666666666657	5.812266666666666	1.0
825.6005804208805	0.19133333333333324	5.442266666666667	1.0
825.3995542270799	0.18739999999999993	5.4044	1.0
825.3995542270799	0.20299999999999993	5.6458666666666675	1.0
825.4033634769463	0.20806666666666657	6.1084000000000005	1.0
824.9919583671119	0.21159999999999993	6.246533333333334	1.0
824.9919583671119	0.20439999999999992	5.9956	1.0
825.0920901304337	0.21326666666666658	5.8242666666666665	1.0
824.9980749320692	0.1968999999999999	5.687600000000001	1.0
824.9980749320692	0.1968999999999999	5.725466666666668	1.0
824.2911207314354	0.2013666666666666	5.725466666666668	1.0
824.2869182637338	0.20383333333333326	5.580133333333333	1.0
824.2869182637338	0.20136666666666658	5.400133333333333	1.0
824.2860743201248	0.20266666666666655	5.425333333333333	1.0
824.2860743201248	0.22253333333333322	5.836533333333334	1.0
824.2860743201248	0.21673333333333322	5.998799999999999	1.0
824.2860743201248	0.21606666666666655	5.9932	1.0
823.4824476986023	0.21663333333333323	5.675333333333333	1.0
822.4792163845831	0.20863333333333325	5.389333333333333	1.0
822.4792163845831	0.23113333333333325	5.993733333333333	1.0
822.1730215601835	0.22823333333333323	5.871733333333332	1.0
822.1738078343894	0.22823333333333323	5.6222666666666665	1.0
822.1738078343894	0.2209999999999999	5.6222666666666665	1.0
822.1720043303952	0.2226333333333332	5.560133333333332	1.0
822.1738243147313	0.2305999999999999	5.560666666666666	1.0
821.7703265724939	0.22689999999999988	5.6248	1.0
821.7703265724939	0.23509999999999992	5.868133333333333	1.0
821.7719502307071	0.23283333333333323	5.840133333333333	1.0
821.7713643759195	0.2321999999999999	5.809333333333334	1.0
821.7713643759195	0.22296666666666656	5.7076	1.0
821.5762997581542	0.22019999999999992	5.408799999999999	1.0
821.0786021417606	0.21873333333333325	5.278266666666667	1.0
820.875168904294	0.23766666666666655	5.610266666666666	1.0
820.875168904294	0.23766666666666655	5.652533333333333	1.0
820.4725321411281	0.2345666666666666	5.483466666666667	1.0
820.4757563870467	0.22646666666666657	5.483466666666667	1.0
820.4757563870467	0.22839999999999988	5.4308000000000005	1.0
820.4724801412179	0.22689999999999988	5.4072000000000005	1.0
819.6739162825651	0.24599999999999994	5.552266666666666	1.0
819.6739162825651	0.23459999999999995	5.505199999999999	1.0
818.6825045634295	0.2223999999999999	4.9261333333333335	1.0
818.6825012726363	0.22483333333333325	4.880533333333333	1.0
818.6799834034235	0.22069999999999992	4.875866666666667	1.0
818.6799834034235	0.2212999999999999	4.916933333333333	1.0
818.6799834034235	0.23546666666666657	5.332933333333333	1.0
818.2845415989003	0.23546666666666657	5.878799999999999	1.0
818.2845415989003	0.2569999999999999	5.8812	1.0
818.2845415989003	0.25536666666666663	5.8812	1.0
818.2838258700995	0.2680666666666666	5.879599999999999	1.0
818.2838258700995	0.2580333333333332	5.882133333333333	1.0
818.2846748140269	0.2560999999999999	5.878666666666667	1.0
817.4901538613134	0.26196666666666657	5.681866666666666	1.0
817.4912103927608	0.2550666666666666	5.7968	1.0
817.4912103927608	0.2664666666666666	5.795733333333334	1.0
816.9974903141025	0.26179999999999987	5.79	1.0
816.2076482215509	0.25796666666666657	5.468133333333333	1.0
816.2076482215509	0.26729999999999987	5.3848	1.0
816.6141541420062	0.26729999999999987	5.417866666666666	1.0
815.1140911590256	0.2617666666666666	5.758	1.0
815.1140911590256	0.27069999999999994	5.758	1.0
815.1130389119904	0.2771999999999999	5.7910666666666675	1.0
815.1129832877398	0.2687666666666666	5.743333333333334	1.0
815.0160954814356	0.2716333333333333	5.6716	1.0
815.0160954814356	0.2510999999999999	5.192933333333333	1.0
814.7216641293783	0.2456666666666666	4.9484	1.0
814.5278566401587	0.2537999999999999	4.933599999999999	1.0
814.5278566401587	0.2685666666666666	5.3568	1.0
814.5272130892538	0.2707666666666666	5.6474666666666655	1.0
814.5289270063363	0.2869666666666666	5.728933333333334	1.0
814.5289270063363	0.2869666666666666	5.704533333333333	1.0
814.5289270063363	0.27593333333333325	5.2736	1.0
813.0529434241876	0.2606666666666666	5.2736	1.0
812.9606582208436	0.2575999999999999	5.205866666666666	1.0
812.9606582208436	0.26609999999999995	5.1576	1.0
812.8646839285127	0.26116666666666655	5.0810666666666675	1.0
811.7848067233747	0.25073333333333325	4.9804	1.0
811.7848067233747	0.26833333333333326	5.165866666666667	1.0
811.6853953509761	0.2673999999999999	5.4108	1.0
811.6841478699422	0.27613333333333323	5.515066666666667	1.0
811.6841478699422	0.2769666666666666	5.4152	1.0
811.4926714021202	0.25883333333333325	5.2379999999999995	1.0
811.3931103241093	0.25883333333333325	5.228933333333333	1.0
811.2926157102941	0.2722999999999999	5.215466666666666	1.0
811.2926157102941	0.26803333333333323	5.215466666666666	1.0
811.3940758238138	0.2686999999999999	5.1197333333333335	1.0
811.2915819069923	0.2574666666666666	4.99	1.0
811.2915819069923	0.26296666666666657	4.9992	1.0
811.2925703847851	0.2582666666666666	5.047066666666667	1.0
811.2925416409271	0.2615333333333333	5.0633333333333335	1.0
811.2925416409271	0.2621999999999999	5.065733333333334	1.0
811.1956051958377	0.2591333333333332	5.1216	1.0
811.1040888854529	0.2652999999999999	5.1710666666666665	1.0
811.1013388795682	0.2577666666666666	5.081200000000001	1.0
811.1013388795682	0.2577666666666666	5.255066666666667	1.0
810.4165548431669	0.2764999999999999	5.3516	1.0
810.4165548431669	0.27136666666666653	5.3516	1.0
810.4165548431669	0.26809999999999995	5.190666666666666	1.0
810.4165548431669	0.27133333333333326	5.1757333333333335	1.0
809.4483417799244	0.2688666666666666	5.2524	1.0
809.4483417799244	0.2840999999999999	5.2692000000000005	1.0
809.4505496407011	0.2825333333333332	5.221466666666667	1.0
808.2818446230444	0.2557999999999999	4.7256	1.0
808.2842440323349	0.24743333333333326	4.527866666666666	1.0
808.2842440323349	0.2548666666666666	4.550666666666666	1.0
807.9878754439939	0.2568333333333333	4.666133333333334	1.0
807.9878927636794	0.2568333333333333	4.6612	1.0
807.9878927636794	0.2513999999999999	4.705066666666666	1.0
807.9922194648029	0.2425333333333332	4.705066666666666	1.0
807.9921516646577	0.2506333333333332	4.7412	1.0
807.9921516646577	0.2510666666666666	4.846666666666667	1.0
807.8966338157622	0.27023333333333327	5.1444	1.0
807.89457804088	0.26833333333333326	5.230133333333333	1.0
807.89457804088	0.2702666666666666	5.2292	1.0
807.89457804088	0.2654999999999999	5.0894666666666675	1.0
807.6006775758531	0.26346666666666657	4.953733333333333	1.0
807.4203129042695	0.24893333333333326	4.680266666666667	1.0
807.4203129042695	0.2563666666666666	4.690666666666667	1.0
807.1219345619394	0.2563666666666666	5.010266666666666	1.0
810.1177848188961	0.26819999999999994	4.929466666666667	1.0
810.1177848188961	0.25743333333333324	4.929466666666667	1.0
805.9601356965865	0.24583333333333324	4.6948	1.0
805.8660936866353	0.25136666666666657	4.642133333333334	1.0
805.8660936866353	0.2601666666666666	4.933333333333334	1.0
804.7163261227332	0.2420666666666666	4.381333333333334	1.0
804.7141916948991	0.22529999999999992	4.200399999999999	1.0
804.6210329161344	0.2313999999999999	4.2110666666666665	1.0
804.6210329161344	0.24089999999999995	4.381200000000001	1.0
804.6252353085474	0.2494666666666666	4.5916	1.0
804.6211530457723	0.24806666666666657	4.688133333333334	1.0
804.6211530457723	0.24806666666666657	4.841200000000001	1.0
804.4225413904846	0.2596666666666666	4.589333333333333	1.0
804.4224264857434	0.24269999999999992	4.589333333333333	1.0
804.4224264857434	0.24309999999999993	4.382666666666667	1.0
804.235566445681	0.22883333333333325	4.2096	1.0
804.234783609898	0.22326666666666659	3.96	1.0
804.2345043960728	0.2269999999999999	3.937466666666667	1.0
804.2345043960728	0.22983333333333325	3.9630666666666663	1.0
804.2380614416567	0.22899999999999993	4.137733333333334	1.0
802.7021099101372	0.22713333333333324	3.863866666666667	1.0
802.7021099101372	0.1335666666666666	1.4028	1.0
802.7030468914005	0.13183333333333327	1.4	1.0
802.7021230353157	0.13183333333333327	1.4	1.0
802.7021230353157	0.12653333333333328	0.24786666666666682	1.0
801.3706796525797	0.0867333333333333	0.24786666666666682	1.0
801.3722014924185	0.08766666666666662	0.16000000000000014	1.0
801.3730808062359	0.09026666666666662	0.16000000000000014	1.0
801.3730808062359	0.08723333333333329	0.15973333333333348	1.0
801.2790122319772	0.08673333333333329	0.1590666666666668	1.0
801.278731769478	0.0880333333333333	0.15653333333333347	1.0
801.278731769478	0.08779999999999996	0.14866666666666678	1.0
801.279155900581	0.08206666666666662	0.10693333333333342	1.0
801.1864903347051	0.08466666666666661	0.11106666666666679	1.0
801.1864903347051	0.08416666666666663	0.0889333333333334	1.0
801.1883770244175	0.08416666666666663	0.0757333333333334	1.0
801.090405017575	0.08719999999999996	0.06586666666666673	1.0
801.090405017575	0.08456666666666662	0.06586666666666673	1.0
800.8994684125445	0.07999999999999995	0.06506666666666673	1.0
800.8952424170142	0.07893333333333329	0.06386666666666672	1.0
800.8943954410247	0.07996666666666662	0.06533333333333338	1.0
800.8943954410247	0.08186666666666662	0.06400000000000006	1.0
800.5170012275313	0.08509999999999995	0.02586666666666669	1.0
