wavelength(nm)	flourescene PD(V)	ti_saph Power (V)
120.42	0.41349399648606777	1.0718477331101894
120.42	0.6308681173250079	1.3781468365341425
120.42	2.0797699242830276	2.69963788241148
784.7491478192883	2.0427849888801575	2.393407840281725
787.1232002757946	2.0599178597331047	2.4202990680933
788.1268794387353	2.041760180145502	2.4092187397181988
787.1231027441203	2.0842538625001907	2.440941631793976
790.2613756178303	2.029060661792755	2.4210821501910686
787.9478809556922	2.0563625171780586	2.4075983203947544
790.6293539544246	2.0261799059808254	2.4297083914279938
787.9504454089654	2.058294951915741	2.4141194745898247
791.3719611112649	2.021603498607874	2.4509798921644688
789.5155496191693	2.048370160162449	2.4169287122786045
792.7561369106643	1.9687620047479868	2.421401545405388
791.0008418930666	2.017431575804949	2.419033795595169
792.5772321504578	1.9954953584820032	2.441336255520582
793.8800821005644	1.9457368832081556	2.4531638883054256
791.2663033961051	2.05160728469491	2.4787269458174706
794.1249615063357	1.9167788177728653	2.4321476593613625
794.7191486948401	1.8819186501204967	2.4128899835050106
797.534310972631	1.7513915728777647	2.3620512075722218
794.5383717166102	1.9274583496153355	2.4541973173618317
798.0479731332516	1.7432672381401062	2.3582036308944225
795.9363111801426	1.8479365278035402	2.422576781362295
798.0953134575614	1.7489806693047285	2.362046279013157
795.938924125845	1.8609887417405844	2.4534166865050793
800.3748668008826	1.7005663756281137	2.2629831321537495
797.8228839407533	1.753550911322236	2.367593213915825
800.3748848837662	1.7172824386507273	2.291352938860655
797.8249446660471	1.7497020922601223	2.365771781653166
801.132319913015	1.6828563511371613	2.2351596169173717
798.0945664072849	1.7562158703804016	2.3707810528576374
801.134820197083	1.6912260949611664	2.2455320730805397
803.5197264647541	1.7073267847299576	2.2314760386943817
801.2249746150546	1.7011866830289364	2.2493919990956783
802.6656478974409	1.6773501075804234	2.212682042270899
804.2880512629131	1.7041081245988607	2.2380564101040363
801.4198249078024	1.702348355203867	2.25495745241642
804.384710641712	1.7287179101258516	2.2535602264106274
804.8606057183356	1.7363267745822668	2.259363681077957
807.1336334288432	1.851888943463564	2.392572958022356
804.8574276218418	1.754042962566018	2.286277074366808
807.2683940677355	1.8453011773526669	2.384998645633459
804.5638830946431	1.7264722604304552	2.2530977986752987
808.0434819741674	1.8966566529124975	2.441043995320797
804.95190413558	1.751757837831974	2.2758515998721123
809.3953040488309	1.9390097558498383	2.4851235933601856
807.3617357219237	1.852755879983306	2.3978745080530643
809.3947007378958	1.9182377010583878	2.4562974646687508
811.3310725342483	2.005200669169426	2.5594338923692703
808.023616518872	1.89733243919909	2.4454909153282642
811.1443270910444	2.0009128227829933	2.5681760646402836
807.7432740412052	1.8856318276375532	2.432659462094307
811.8354340422347	2.029937468469143	2.5766136161983013
813.1006688466723	2.0404443629086018	2.59594901278615
811.335116041775	2.029240693897009	2.59321129322052
813.984218970273	2.0480495132505894	2.6036750338971615
811.5310506417696	2.020832736045122	2.567055068910122
814.7740467589267	2.0505602955818176	2.6075460352003574
812.7094074766159	2.055668242275715	2.6117081120610237
815.2604462837123	2.0625778697431087	2.630758613348007
817.639557349011	2.0778399780392647	2.6643165163695812
815.2604505884532	2.07537480071187	2.6457802541553974
817.6207859325255	2.062080889940262	2.659721590578556
815.2636682280771	2.0593629218637943	2.626147672533989
818.7164604339627	2.0663539320230484	2.6791161708533764
815.3520302641823	2.057181376963854	2.62345065549016
818.7202870075932	2.0572972930967808	2.669976904988289
821.7097882017162	2.054877784103155	2.7384011447429657
818.3198496793523	2.0730798207223415	2.683873876929283
820.8172219585048	2.0391038730740547	2.6980840750038624
817.6418469184438	2.0608822107315063	2.6572650521993637
821.6668198778599	2.0281160213053226	2.7028022967278957
818.3189104681446	2.0607453137636185	2.669890582561493
824.1311422637658	1.9585646484047174	2.708303615450859
821.8266450229514	2.0361787043511868	2.7103322334587574
824.3234339604819	1.9676311500370502	2.720445729792118
821.0081506578646	2.0438566394150257	2.702624723315239
825.0298311715662	1.9397484455257654	2.7307676263153553
822.1132355478646	2.027490805834532	2.7177881710231304
825.7481808249556	1.8851027749478817	2.6868890412151814
824.1293937324326	1.9607030153274536	2.714991256594658
827.062652654306	1.8151592388749123	2.672534566372633
824.7469358519036	1.9259748086333275	2.6877485774457455
828.288014996643	1.763513958081603	2.6504935398697853
120.42	1.908341247588396	2.709996812045574
828.790737246265	1.7125037722289562	2.6176718659698963
825.7481304492976	1.8840335961431265	2.688304767012596
829.2989842758659	1.6810904126614332	2.6120509393513203
830.018862589901	1.6395314820110798	2.577846836298704
831.7532621231882	1.5413019843399525	2.4803979508578777
829.5104902341402	1.6610249746590853	2.5856382101774216
831.5510354680871	1.56264871917665	2.502284836024046
832.9938895137615	1.46376808360219	2.3992433473467827
831.0376811993264	1.6056541875004768	2.556301549077034
832.9950262475926	1.4568362440913916	2.3894295394420624
835.0454529988573	1.4059789795428514	2.3513852432370186
832.1581715524967	1.5374975614249706	2.492997571825981
834.5590626745884	1.4022411461919546	2.334307860583067
836.5866633806731	1.3733237832784653	2.292082969099283
833.3924062094216	1.4577031936496496	2.3967510610818863
836.6318981728624	1.372533306479454	2.2864114940166473
837.7631697079711	1.3974008336663246	2.3142843544483185
835.0443315244281	1.3945114370435476	2.3341820649802685
837.2517096230713	1.3828761670738459	2.287218015640974
838.3973016976915	1.412365734577179	2.320777151733637
835.7793630998481	1.3818328734487295	2.3002394177019596
839.1257561699839	1.4017071668058634	2.294019144028425
836.8091029212815	1.3783663604408503	2.291890610009432
840.956107163842	1.4409378059208393	2.3396488428115845
839.0268820677295	1.4021967556327581	2.2970133535563946
841.537622635942	1.4426803290843964	2.3398683555424213
840.3807986837409	1.4244239926338196	2.3198633529245853
843.1148456322301	1.4829369820654392	2.4006343968212605
841.3345841000202	1.4468386843800545	2.353529781103134
843.1147837962366	1.4754033405333757	2.381517305970192
844.8197578018219	1.495361490175128	2.4191324561834335
842.6858662059842	1.4648101385682821	2.356971647590399
844.8197357188172	1.4949927646666765	2.4229270294308662
842.16551174093	1.4603693801909685	2.3593011759221554
845.66200761318	1.5156476758420467	2.444689344614744
846.8919674098652	1.5091055370867252	2.452922187745571
845.0283348730665	1.503972940146923	2.4463615603744984
848.6453197485807	1.5151839926838875	2.479561824351549
845.70741588994	1.51323676481843	2.4494088105857372
848.3262231209345	1.5081966649740934	2.473780572414398
845.0283884495162	1.5004965513944626	2.441464491188526
849.2885984913921	1.5153887011110783	2.47437746450305
852.29766556745	1.4601597283035517	2.4812957234680653
849.1804792583978	1.5166478045284748	2.4852037392556667
852.4045954324047	1.4676539096981287	2.495065648108721
848.8466395924346	1.5229161716997623	2.4919567368924618
852.4045779210572	1.4777291771024466	2.5054886899888515
848.750817194238	1.5267785638570786	2.4958240687847137
852.3004204984607	1.4709144923835993	2.495408471673727
853.0481070461026	1.4518060144037008	2.4903030283749104
855.9540163473904	1.3924236334860325	2.5517498068511486
852.7325773476514	1.4682680424302816	2.506326023489237
855.9540160610267	1.3765029832720757	2.5260350555181503
852.5034018219458	1.465143097564578	2.503436617553234
855.9070396395471	1.3873021379113197	2.537278179079294
852.5105253253565	1.4803620614111423	2.510748289525509
856.4983302486744	1.353320013731718	2.5202858671545982
856.8575988222065	1.3332373071461916	2.510509043931961
858.49549320314	1.2407828960567713	2.4683421663939953
856.6343901802754	1.352065846323967	2.5208457484841347
860.3629997292657	1.1226642914116383	2.3917602822184563
858.3861767239339	1.2384274788200855	2.453627575188875
860.246454146694	1.128676164895296	2.394020736217499
857.1850862843766	1.3087237160652876	2.4824154525995255
860.3617981721818	1.116580916568637	2.377060517668724
861.1371871879876	1.0414850544184446	2.282593511044979
864.1178901019481	0.9185717720538378	2.083317868411541
861.1788063555276	1.0689891744405031	2.329721584916115
864.0087557935186	0.9193203235045075	2.080863796174526
860.6941615658043	1.08205371722579	2.337293442338705
864.0047546838146	0.9236747631803155	2.1009255312383175
860.6900796252454	1.1053600050508976	2.388900488615036
864.7643336751869	0.8933404488489032	2.026610292494297
866.3440633814847	0.8267191583290696	1.8692215997725725
864.1174276963438	0.9217448020353913	2.0949223190546036
868.0230496173494	0.7892581671476364	1.7758768051862717
864.335716098252	0.908755480311811	2.0770852603018284
867.9051703342025	0.8110537873581052	1.8197368867695332
864.0703801108333	0.9177763573825359	2.085676982998848
868.1332385170678	0.8021648628637195	1.7950494103133678
871.8148714895182	0.7739232936874032	1.6758110709488392
868.3546248144532	0.7810462713241577	1.753470754250884
871.6961058971748	0.7672529071569443	1.663819408044219
868.355570019974	0.8013299880549312	1.8027951512485743
872.2947136083342	0.7570493826642632	1.6341041680425406
870.1510034487798	0.7722671031951904	1.7063920255750418
872.2993236811899	0.7560517285019159	1.6386176887899637
870.1553916612295	0.7772048451006413	1.7090816386044025
873.178841457327	0.7255324339494109	1.5709752887487411
872.2329668122703	0.7754598632454872	1.6778779178857803
876.0462146375486	0.7107562012970448	1.515114936977625
872.3594562460806	0.7496846998110414	1.6224676705896854
875.9290858036279	0.7091567404568195	1.5173778533935547
872.2952432828254	0.7655313545837998	1.6552165877074003
875.9252023865663	0.7121238205581903	1.5251359306275845
872.1793201851675	0.7640416426584125	1.6561871208250523
876.8413547609276	0.7040697745978832	1.4946733713150024
879.9406864306051	0.6805439721792936	1.4545992277562618
876.6594813380686	0.7063758661970496	1.5063813831657171
879.8211486420076	0.6739895064383745	1.4452256560325623
876.2682564798577	0.7086659241467714	1.508084449917078
880.284157054006	0.6810421869158745	1.4635892678052187
876.8129685189934	0.700963344424963	1.4918246734887362
880.1720092615465	0.6750401947647333	1.449016511440277
880.7440322222328	0.6813763910904527	1.456630302593112
882.6006105045991	0.6340312790125608	1.3749331180006266
880.7153447743855	0.6759354993700981	1.445895278826356
882.5959371028647	0.6304833516478539	1.372776234522462
880.5209314239105	0.6823814464733005	1.4627334233373404
884.3424747047249	0.5992759363725781	1.3281639106571674
120.42	0.6434813095256686	1.391697272658348
884.4519988687526	0.602222059853375	1.3338514436036348
882.2003443547766	0.6447971360757947	1.388747449964285
885.155673138195	0.5536844450980425	1.2377849705517292
888.3149899766112	0.4757608505897224	1.147372741252184
884.6951043150627	0.5851348051801324	1.3033444825559855
888.3100210532225	0.4808786422945559	1.1555686015635729
884.4537070721668	0.5995891708880663	1.3299027271568775
888.5455320181923	0.4665056671947241	1.1278079953044653
885.0383895060962	0.5717496303841472	1.2862041965126991
888.5436200601565	0.47765998262912035	1.1563652604818344
889.020700254241	0.44440914737060666	1.0911263916641474
893.0356207306482	0.3350672610104084	0.965948942117393
888.6149711853144	0.4643574287183583	1.1371507234871387
892.5627948127468	0.3548872843384743	1.000241830945015
120.42	0.46570901945233345	1.1338346432894468
892.5637274038252	0.36460245633497834	1.0118129700422287
888.5468855393633	0.47668822249397635	1.1521292049437761
892.79630399225	0.3440807326696813	0.9896190278232098
889.2524474195111	0.4371332530863583	1.0832240134477615
894.8189772758549	0.2903192713856697	0.9146020906046033
892.6777698610802	0.35525477956980467	1.0061673689633608
894.8189735565335	0.2871363777667284	0.904011351056397
896.9647550680727	0.250845697009936	0.8636584999039769
893.504151362852	0.3277284698560834	0.9629423916339874
896.7272932866787	0.2518902220763266	0.8581510204821825
893.0344047814779	0.337372113019228	0.9753200467675924
897.0901464874806	0.24107010499574244	0.8305285228416324
899.9597336161005	0.20199361932463944	0.7549097836017609
897.0889342765923	0.24994546198286116	0.8658153675496578
899.252080250659	0.21132279629819095	0.768033524043858
897.0901548878659	0.25579454144462943	0.8819061992689967
901.3029700703182	0.19206264172680676	0.7186203394085169
897.0889353561763	0.2470486699603498	0.8547116154804826
901.3042058234593	0.19489900674670935	0.7315282644703984
897.0901494548822	0.25069771660491824	0.8656945135444403
902.152720358505	0.1781644499860704	0.6678555551916361
901.3041985202666	0.19453027797862887	0.7264450034126639
905.192448291926	0.16234862874262035	0.6090786643326283
901.6643783236308	0.18906719284132123	0.7078384449705482
905.1924045016171	0.1638630023226142	0.6108359796926379
901.3041636405062	0.19152989704161882	0.7137405490502715
905.1924285652102	0.16315514384768903	0.6111603109166026
120.42	0.19351165439002216	0.7217354029417038
905.7994977597142	0.16350537352263927	0.6069069961085916
907.8834251722751	0.15538350190036	0.5756860123947263
905.8019576471426	0.16172216250561178	0.6037869919091463
908.0074041331435	0.15366441803053021	0.5707457968965173
905.8019100438838	0.1626310320571065	0.6064938679337502
908.0073926484291	0.15329199051484466	0.5671534817665815
909.8497558903449	0.1579596616793424	0.5811725314706564
906.896441249189	0.15598653792403638	0.5803869822993875
909.848376990347	0.15670056105591357	0.5745576340705156
910.5920471717345	0.15370141412131488	0.5627262834459543
908.0074007148612	0.15588171570561826	0.580041685141623
911.2075897674159	0.1401300213765353	0.5142959663644433
914.1867122271382	0.14002396608702838	0.5242849038913846
911.2076060829103	0.14884259621612728	0.5465639345347881
914.1855474140051	0.1419822925236076	0.5351864080876112
910.5907400816725	0.15190587076358497	0.5586715117096901
914.1828514071558	0.1415851996280253	0.5296912612393498
909.9734604049321	0.15010416298173368	0.557123844511807
916.5570959752441	0.11874259286560118	0.4701744462363422
914.1842699628025	0.14256189693696797	0.5360484188422561
