wavelength(nm)	flourescence PMT(V)	ti_saph Power (V)	Gain (V)
750.2405728074849	0.44889999999999985	4.272533333333333	1.0
750.2405728074849	0.42166666666666663	3.990666666666666	1.0
750.3216363115706	0.42479999999999996	3.9754666666666663	1.0
750.3216363115706	0.44133333333333324	4.1532	1.0
750.3216363115706	0.4425666666666666	4.221066666666666	1.0
750.7358776696638	0.44856666666666667	4.353333333333334	1.0
750.7358776696638	0.4252666666666666	4.1284	1.0
751.0679926835563	0.4333666666666666	4.307866666666667	1.0
751.0679926835563	0.4573	4.390400000000001	1.0
751.0679926835563	0.43879999999999997	4.344000000000001	1.0
751.0679926835563	0.43879999999999997	4.255733333333333	1.0
751.0679926835563	0.4303666666666665	4.104933333333333	1.0
751.741107358301	0.4168333333333333	4.104933333333333	1.0
751.741107358301	0.4530666666666665	4.354266666666668	1.0
752.1556939816094	0.44033333333333324	4.351999999999999	1.0
752.1556939816094	0.42166666666666663	4.356133333333334	1.0
752.155999587528	0.44363333333333327	4.4628000000000005	1.0
752.155999587528	0.47443333333333326	4.634000000000001	1.0
752.155999587528	0.4223666666666666	4.154133333333334	1.0
752.5261985184975	0.40429999999999994	4.002266666666666	1.0
752.5261985184975	0.40676666666666655	4.1104	1.0
752.5261985184975	0.41336666666666666	4.170266666666667	1.0
752.5261985184975	0.41336666666666666	4.114933333333334	1.0
752.5261985184975	0.4159999999999999	4.114933333333334	1.0
753.2407092543723	0.39119999999999994	3.9676000000000005	1.0
753.2407092543723	0.41073333333333323	4.0789333333333335	1.0
753.578930049245	0.4309999999999998	4.337466666666668	1.0
753.578930049245	0.41646666666666654	4.278666666666666	1.0
753.9967894417293	0.41769999999999996	4.1872	1.0
753.9967894417293	0.41979999999999995	4.259600000000001	1.0
753.9967894417293	0.4328999999999999	4.486400000000001	1.0
753.9184685228671	0.43463333333333326	4.4424	1.0
753.9184685228671	0.42679999999999996	4.418266666666668	1.0
754.3349435165687	0.42679999999999996	4.003466666666666	1.0
754.3349435165687	0.4049666666666666	3.9595999999999996	1.0
755.0941344476543	0.39456666666666657	3.9595999999999996	1.0
755.0941344476543	0.40893333333333326	4.169733333333333	1.0
755.0941344476543	0.40136666666666654	4.285200000000001	1.0
755.0948330652592	0.4203666666666666	4.3836	1.0
755.0948330652592	0.41843333333333327	4.414533333333335	1.0
755.8482518613451	0.4103333333333333	4.1550666666666665	1.0
755.8482518613451	0.3808333333333333	4.081733333333334	1.0
755.8482518613451	0.3906333333333333	4.093066666666667	1.0
756.1097278098694	0.37949999999999995	3.9807999999999995	1.0
756.1097278098694	0.38049999999999995	4.015866666666667	1.0
756.1907578490573	0.38049999999999995	4.095466666666667	1.0
756.1907578490573	0.40033333333333326	4.213333333333333	1.0
756.5275408611135	0.4017333333333333	4.213333333333333	1.0
756.5275408611135	0.38949999999999996	4.136266666666667	1.0
756.5275408611135	0.3883333333333333	4.102133333333334	1.0
756.8706868946077	0.37679999999999997	3.9919999999999995	1.0
756.8706868946077	0.38306666666666656	4.2052000000000005	1.0
756.948396611883	0.4063666666666666	4.3305333333333325	1.0
756.948396611883	0.4134666666666666	4.402666666666668	1.0
756.948396611883	0.4059999999999999	4.355866666666667	1.0
756.9506540511615	0.40203333333333324	4.3384	1.0
756.9506540511615	0.3908999999999999	4.055866666666667	1.0
757.2078739951046	0.3908999999999999	3.9909333333333334	1.0
757.2078739951046	0.3799666666666666	3.9551999999999996	1.0
757.2085795940058	0.3737	3.9551999999999996	1.0
757.2085795940058	0.3714666666666666	3.9696000000000002	1.0
757.2085795940058	0.36899999999999994	3.9018666666666664	1.0
757.3712184405161	0.38489999999999996	4.125733333333335	1.0
757.3712184405161	0.39903333333333324	4.3344000000000005	1.0
757.6685314062152	0.39379999999999993	4.276666666666666	1.0
757.6685314062152	0.39846666666666664	4.2076	1.0
757.6685314062152	0.3978666666666666	4.362533333333334	1.0
766.4491316158475	0.40406666666666663	4.556933333333334	1.0
766.4491316158475	0.40406666666666663	4.608666666666666	1.0
762.4257907131731	0.4198666666666666	4.612666666666668	1.0
762.4257907131731	0.41513333333333324	4.612666666666668	1.0
762.4257907131731	0.4240666666666666	4.697866666666667	1.0
762.4257907131731	0.413	4.684666666666667	1.0
762.4257907131731	0.4152999999999999	4.700933333333334	1.0
762.4257907131731	0.4125333333333333	4.6716	1.0
762.4257907131731	0.41556666666666664	4.674	1.0
762.1500698974429	0.40336666666666665	4.603333333333334	1.0
762.1500698974429	0.38743333333333324	4.532933333333333	1.0
762.1500698974429	0.39396666666666663	4.533866666666667	1.0
762.1484772303214	0.3943666666666666	4.521333333333334	1.0
762.1484772303214	0.3943666666666666	4.302133333333333	1.0
762.4108347348064	0.3746999999999999	4.302133333333333	1.0
762.4108347348064	0.37589999999999996	4.2424	1.0
762.8406693435528	0.3795666666666666	4.451466666666667	1.0
762.8406693435528	0.38969999999999994	4.5982666666666665	1.0
762.8406693435528	0.4053999999999999	4.6058666666666666	1.0
762.8391686274963	0.3977666666666666	4.6356	1.0
762.8391686274963	0.40806666666666663	4.744533333333333	1.0
763.9603030564214	0.3992333333333333	4.7524	1.0
763.9603030564214	0.41426666666666656	4.9304	1.0
763.9603030564214	0.4351999999999999	5.058133333333333	1.0
763.9606652420683	0.4266666666666666	5.08	1.0
763.9606652420683	0.4266666666666666	5.080133333333333	1.0
763.9606652420683	0.4380666666666666	5.080133333333333	1.0
763.9606652420683	0.42239999999999994	5.0184	1.0
764.3897057190526	0.4107333333333333	4.8504	1.0
764.3897057190526	0.39573333333333327	4.6056	1.0
764.3897057190526	0.3749333333333333	4.458533333333334	1.0
764.3889579531167	0.3794333333333333	4.431466666666667	1.0
764.3889579531167	0.43399999999999994	5.175466666666667	1.0
764.9071018992677	0.4475666666666666	5.399733333333333	1.0
764.9071018992677	0.45433333333333326	5.435733333333333	1.0
764.9026046430891	0.4470333333333333	5.442266666666667	1.0
764.9026046430891	0.4470333333333333	5.349866666666667	1.0
764.9026046430891	0.43856666666666666	4.787733333333334	1.0
765.5168966455285	0.3969999999999999	4.787733333333334	1.0
765.5168966455285	0.39146666666666663	4.5927999999999995	1.0
765.5168655111065	0.39043333333333324	4.598533333333333	1.0
765.5168655111065	0.39206666666666656	4.599866666666667	1.0
765.5168655111065	0.3880666666666666	4.632133333333333	1.0
765.9462304150665	0.4169999999999999	5.038800000000001	1.0
765.9462304150665	0.4099333333333333	5.069733333333334	1.0
765.9453491243189	0.42793333333333333	5.080266666666667	1.0
765.9453491243189	0.3952666666666666	4.7059999999999995	1.0
766.3805685309331	0.3757333333333333	4.492	1.0
766.3805685309331	0.3757333333333333	5.38	1.0
766.3805685309331	0.4447333333333333	5.4772	1.0
767.077031911957	0.4376666666666666	5.4772	1.0
767.077031911957	0.45139999999999986	5.513066666666666	1.0
767.5081483759302	0.42566666666666664	5.396133333333333	1.0
767.5081483759302	0.42176666666666657	5.3267999999999995	1.0
767.9401536113842	0.43106666666666665	5.308533333333333	1.0
767.9401536113842	0.4280333333333332	5.2165333333333335	1.0
767.9401536113842	0.40679999999999994	5.099733333333334	1.0
767.9397600001166	0.3813	4.7826666666666675	1.0
767.9397600001166	0.3975999999999999	4.906	1.0
768.2951023912959	0.40349999999999997	5.0738666666666665	1.0
768.2951023912959	0.40349999999999997	4.973466666666667	1.0
768.2951023912959	0.39633333333333326	4.973466666666667	1.0
768.7271973397047	0.39603333333333324	4.991866666666667	1.0
768.7271973397047	0.4119666666666666	5.192933333333333	1.0
768.9935519425649	0.4079666666666666	5.185733333333333	1.0
768.9935519425649	0.40846666666666664	5.169066666666668	1.0
769.0802775868623	0.3884666666666666	4.97	1.0
769.0802775868623	0.3904999999999999	4.902133333333333	1.0
769.0802775868623	0.39286666666666664	4.945733333333333	1.0
769.2628090555459	0.38413333333333327	4.770666666666668	1.0
769.2628090555459	0.4184666666666666	5.2984	1.0
770.1337189194039	0.4184666666666666	5.4454666666666665	1.0
770.1337189194039	0.4234666666666666	4.894533333333333	1.0
770.1337189194039	0.3879999999999999	4.894533333333333	1.0
770.5685601124791	0.38473333333333326	4.9276	1.0
770.5685601124791	0.41363333333333324	5.1944	1.0
770.9191749942252	0.4081666666666666	5.1597333333333335	1.0
770.9191749942252	0.3719333333333333	4.942133333333333	1.0
771.3577014156447	0.37316666666666665	4.8293333333333335	1.0
771.3577014156447	0.4044666666666666	5.1193333333333335	1.0
771.3577014156447	0.38076666666666664	4.8848	1.0
771.7113232692499	0.3683666666666666	4.7598666666666665	1.0
771.7113232692499	0.37646666666666656	4.789200000000001	1.0
772.065243938889	0.37646666666666656	5.3492	1.0
772.065243938889	0.41146666666666665	5.3492	1.0
772.0641257986375	0.4028666666666666	5.3732	1.0
772.0641257986375	0.3941666666666666	5.105466666666667	1.0
772.0641257986375	0.38363333333333327	4.9668	1.0
772.1519636714767	0.39293333333333325	4.990399999999999	1.0
772.1519636714767	0.3851666666666666	5.002	1.0
772.418082688386	0.3713333333333333	4.789333333333334	1.0
772.418082688386	0.3879666666666666	4.9976	1.0
772.418082688386	0.40716666666666657	5.242666666666667	1.0
773.3011624940283	0.40739999999999993	5.228533333333333	1.0
773.3011624940283	0.40739999999999993	4.983733333333333	1.0
773.653993223144	0.37696666666666656	5.0024	1.0
773.653993223144	0.3880333333333333	5.0024	1.0
774.3662966218125	0.3872666666666666	5.086	1.0
774.3662966218125	0.39343333333333325	5.2808	1.0
774.3662966218125	0.4016666666666666	5.3024000000000004	1.0
774.8064932311268	0.40406666666666663	5.3238666666666665	1.0
774.8064932311268	0.3902999999999999	5.067733333333334	1.0
774.8043017313488	0.3928999999999999	5.037866666666667	1.0
774.8043017313488	0.3971333333333333	5.167466666666668	1.0
774.8043017313488	0.4319999999999999	5.755733333333334	1.0
775.1612408078303	0.4380666666666666	5.800666666666666	1.0
775.1612408078303	0.4380666666666666	5.5334666666666665	1.0
775.2473261066737	0.4255999999999999	5.5334666666666665	1.0
775.2473261066737	0.4048333333333333	5.238533333333333	1.0
775.4314703965032	0.40853333333333325	5.239599999999999	1.0
775.4314703965032	0.40263333333333323	5.343333333333334	1.0
775.4314703965032	0.39903333333333324	5.279866666666667	1.0
776.4081606014786	0.3962666666666666	5.215866666666666	1.0
776.4081606014786	0.4285333333333333	5.622666666666666	1.0
776.6780168112241	0.41509999999999997	5.448666666666666	1.0
776.6780168112241	0.39569999999999994	5.202	1.0
776.8877582623048	0.3926666666666666	5.2168	1.0
776.8877582623048	0.3926666666666666	5.388933333333333	1.0
776.8877582623048	0.4060333333333333	6.0356	1.0
777.0368779020506	0.4570333333333332	6.0356	1.0
777.0368779020506	0.4594	6.062666666666667	1.0
777.4817422105054	0.44056666666666655	5.893866666666666	1.0
777.4817422105054	0.4438	5.9476	1.0
777.4817422105054	0.4148666666666666	5.486533333333333	1.0
777.925550177128	0.41553333333333325	5.361066666666666	1.0
777.925550177128	0.40689999999999993	5.316533333333333	1.0
778.2014549966358	0.4166666666666666	5.521466666666667	1.0
778.2014549966358	0.4418666666666667	5.905066666666666	1.0
778.2875026153561	0.4410333333333332	5.8696	1.0
778.2875026153561	0.4410333333333332	5.859466666666666	1.0
778.2875026153561	0.43339999999999995	5.859466666666666	1.0
778.3736660666143	0.4227333333333333	5.573066666666666	1.0
778.3736660666143	0.4373666666666666	5.7951999999999995	1.0
778.6452168168629	0.44133333333333324	5.773999999999999	1.0
778.6452168168629	0.41596666666666654	5.346133333333333	1.0
778.6452168168629	0.39609999999999995	5.297066666666666	1.0
778.6452168168629	0.4415333333333333	5.8486666666666665	1.0
778.6452168168629	0.41703333333333326	5.3804	1.0
779.8519696953275	0.4158333333333333	5.362533333333333	1.0
779.8519696953275	0.4573999999999999	5.939333333333333	1.0
780.2617634430927	0.4573999999999999	5.864399999999999	1.0
780.2617634430927	0.4594666666666666	6.012133333333334	1.0
780.2617634430927	0.46153333333333324	6.012133333333334	1.0
780.9830832319598	0.43839999999999996	5.562799999999999	1.0
780.9830832319598	0.4402333333333332	5.538133333333333	1.0
781.432949633609	0.47466666666666657	6.1612	1.0
781.432949633609	0.4868666666666665	6.232133333333333	1.0
781.4330079409579	0.47409999999999985	6.217066666666667	1.0
781.4330079409579	0.46373333333333333	5.9013333333333335	1.0
781.4330079409579	0.44383333333333325	5.6744	1.0
781.5224007577654	0.4298999999999999	5.573333333333332	1.0
781.5224007577654	0.4424666666666666	5.583866666666666	1.0
781.7952362635119	0.4424666666666666	5.533066666666667	1.0
781.7952362635119	0.4426666666666666	5.5264	1.0
781.7952362635119	0.43696666666666656	5.5264	1.0
782.8869531240401	0.4817999999999999	6.046133333333334	1.0
782.8869531240401	0.4379666666666666	5.3976	1.0
782.9738131843687	0.42613333333333325	5.252933333333333	1.0
782.9738131843687	0.458	5.620133333333333	1.0
783.3383126646889	0.4929666666666666	6.210933333333333	1.0
783.3383126646889	0.5059666666666667	6.323333333333333	1.0
783.3383126646889	0.5156666666666666	6.4417333333333335	1.0
784.1583876385599	0.4871666666666666	5.909733333333333	1.0
784.1583876385599	0.46369999999999983	5.593066666666665	1.0
784.4340673918018	0.46369999999999983	5.621333333333332	1.0
784.4340673918018	0.4699333333333332	5.621333333333332	1.0
784.5236885925525	0.4949999999999999	6.070666666666666	1.0
784.5236885925525	0.5186	6.399866666666668	1.0
784.5236885925525	0.5058666666666666	6.360800000000001	1.0
784.7989161520627	0.4972666666666666	6.0443999999999996	1.0
784.7989161520627	0.5193999999999999	6.128266666666667	1.0
784.9747213448422	0.49186666666666656	5.922133333333333	1.0
784.9747213448422	0.47669999999999996	5.716266666666667	1.0
784.9747213448422	0.4752333333333333	5.6952	1.0
784.9764406173601	0.4756666666666666	5.768266666666666	1.0
784.9764406173601	0.4756666666666666	5.954533333333332	1.0
786.0737917302366	0.5033	6.150666666666667	1.0
786.0737917302366	0.5210999999999999	6.150666666666667	1.0
786.1621486982743	0.5318999999999999	6.093866666666667	1.0
786.1621486982743	0.47856666666666664	5.631333333333332	1.0
786.1621486982743	0.4779333333333332	5.5572	1.0
786.4377006404584	0.5362666666666667	6.1508	1.0
786.4377006404584	0.5350333333333332	6.1996	1.0
787.1743801857253	0.5413666666666666	6.145200000000001	1.0
787.1743801857253	0.5959666666666665	6.596133333333333	1.0
787.1743801857253	0.5210333333333332	5.818666666666666	1.0
787.1743801857253	0.5210333333333332	5.720266666666667	1.0
787.1743801857253	0.5309999999999999	5.726133333333334	1.0
787.7217177270506	0.5222666666666667	5.726133333333334	1.0
787.7217177270506	0.5991666666666666	6.454	1.0
787.7217177270506	0.5705666666666667	6.278666666666666	1.0
787.7217177270506	0.5573666666666666	5.9072	1.0
787.7217177270506	0.5728666666666666	6.026400000000001	1.0
788.0907230583218	0.5327999999999999	5.8148	1.0
788.0907230583218	0.5426666666666666	5.713733333333334	1.0
788.0888616056701	0.5436666666666665	5.666933333333333	1.0
788.0888616056701	0.5419999999999999	5.7308	1.0
789.2851853728315	0.5698666666666666	6.0312	1.0
789.2851853728315	0.5698666666666666	6.042000000000001	1.0
789.2851853728315	0.6247666666666667	6.042000000000001	1.0
789.2854882152914	0.6190666666666665	5.896799999999999	1.0
789.2854882152914	0.6177666666666666	5.903733333333332	1.0
789.6548156598733	0.7156999999999999	6.513333333333334	1.0
789.6548156598733	0.7496666666666666	6.847066666666667	1.0
789.6548156598733	0.7945999999999999	6.717066666666667	1.0
787.7196691494522	0.5673333333333332	6.167066666666667	1.0
787.7196691494522	0.5780333333333332	6.168666666666667	1.0
787.6298970732314	0.5787	6.399733333333335	1.0
787.6298970732314	0.5635666666666665	6.1092	1.0
787.259752117152	0.5251666666666666	5.781333333333333	1.0
787.259752117152	0.5266333333333334	5.732933333333333	1.0
787.259752117152	0.5464333333333332	5.873733333333333	1.0
786.5273761188735	0.5316333333333333	6.039466666666667	1.0
786.5273761188735	0.5316333333333333	5.823733333333333	1.0
786.1621172335376	0.4979666666666666	6.3032	1.0
786.1621172335376	0.5401333333333332	6.3032	1.0
786.1621172335376	0.5040999999999999	5.868266666666667	1.0
786.0721889886073	0.5231333333333332	6.042666666666667	1.0
786.0721889886073	0.5393666666666667	6.394400000000001	1.0
784.973433899084	0.47806666666666664	5.784400000000001	1.0
784.973433899084	0.4717333333333333	5.620666666666666	1.0
784.976399368475	0.48016666666666663	5.774266666666666	1.0
784.976399368475	0.4870333333333332	5.877066666666666	1.0
784.976399368475	0.5080333333333332	5.914399999999999	1.0
784.7941572203727	0.4919333333333333	5.9825333333333335	1.0
784.7941572203727	0.4919333333333333	6.1134666666666675	1.0
784.6080669797267	0.49049999999999994	6.1134666666666675	1.0
784.6080669797267	0.5052333333333333	6.159866666666667	1.0
784.6080669797267	0.5063333333333333	6.237333333333333	1.0
784.521167572609	0.5302999999999999	6.376133333333335	1.0
784.521167572609	0.5162	6.3336000000000015	1.0
784.521167572609	0.49413333333333326	6.0520000000000005	1.0
784.521167572609	0.4824666666666665	5.8810666666666656	1.0
783.7875401232775	0.4825666666666666	6.0168	1.0
783.7875401232775	0.47106666666666663	5.9097333333333335	1.0
783.7875401232775	0.5171666666666666	6.468933333333333	1.0
783.3360474504324	0.5171666666666666	6.6272	1.0
783.3360474504324	0.5209999999999998	5.613733333333333	1.0
782.9737462442909	0.45619999999999994	5.613733333333333	1.0
782.9737462442909	0.4422666666666666	5.491733333333333	1.0
781.7980119493135	0.4376666666666666	5.578133333333333	1.0
781.7980119493135	0.4404666666666666	5.584266666666666	1.0
781.7980119493135	0.46336666666666654	5.8482666666666665	1.0
781.7090417427892	0.46536666666666654	5.9938666666666665	1.0
781.7090417427892	0.46529999999999994	6.04	1.0
781.7088657093918	0.46916666666666657	6.026533333333333	1.0
781.7088657093918	0.46646666666666664	5.916666666666667	1.0
781.7088657093918	0.47103333333333336	6.038	1.0
781.4328150532027	0.47103333333333336	6.040133333333333	1.0
781.4328150532027	0.4668	6.040133333333333	1.0
781.432865409981	0.45456666666666656	5.903600000000001	1.0
781.432865409981	0.45906666666666657	5.937733333333333	1.0
780.9849271301351	0.44299999999999995	5.739333333333334	1.0
780.9849271301351	0.4441666666666666	5.738266666666667	1.0
780.9849271301351	0.45349999999999985	5.877733333333333	1.0
780.6236860359066	0.42479999999999996	5.392799999999999	1.0
780.6236860359066	0.45123333333333326	5.860666666666666	1.0
780.6236860359066	0.4374666666666666	5.6841333333333335	1.0
780.6236860359066	0.43096666666666655	5.562666666666666	1.0
780.6236860359066	0.43096666666666655	5.691999999999999	1.0
779.813176727982	0.4314333333333333	5.765733333333334	1.0
779.813176727982	0.42873333333333324	5.765733333333334	1.0
778.6432197419413	0.4227999999999999	5.5123999999999995	1.0
778.6432197419413	0.41626666666666656	5.503733333333333	1.0
778.6437368744645	0.42776666666666663	5.683999999999999	1.0
778.6437368744645	0.4604999999999999	6.149333333333333	1.0
778.6437368744645	0.45406666666666656	6.05	1.0
778.2864218024736	0.44586666666666663	5.962533333333333	1.0
778.2864218024736	0.4534666666666665	5.900933333333334	1.0
778.284492200689	0.4495666666666666	5.945733333333333	1.0
778.284492200689	0.4226999999999999	5.6636	1.0
777.9264074933081	0.4226999999999999	5.7059999999999995	1.0
777.9264074933081	0.43463333333333326	5.73	1.0
777.9264074933081	0.43849999999999995	5.73	1.0
777.4825728798724	0.4264333333333333	5.587599999999999	1.0
777.4825728798724	0.39896666666666664	5.3368	1.0
777.0357058358874	0.4099666666666666	5.355733333333332	1.0
777.0357058358874	0.4166666666666666	5.370133333333333	1.0
777.0357058358874	0.39826666666666666	5.1466666666666665	1.0
776.6769493120819	0.3994	5.289866666666667	1.0
776.6769493120819	0.42169999999999996	5.484666666666667	1.0
776.5925298376362	0.4398999999999999	5.766800000000001	1.0
776.5925298376362	0.4398999999999999	5.890533333333333	1.0
775.6057161654771	0.4482999999999999	5.265866666666667	1.0
775.6057161654771	0.3978666666666666	5.265866666666667	1.0
775.6057161654771	0.38373333333333326	5.107066666666666	1.0
775.4333506908378	0.43079999999999996	5.7044	1.0
775.4333506908378	0.4563666666666666	5.962933333333333	1.0
775.2496202740366	0.43043333333333333	5.794133333333334	1.0
775.2496202740366	0.42869999999999997	5.774666666666667	1.0
775.2496202740366	0.4150666666666666	5.497866666666667	1.0
775.0753788170505	0.40156666666666657	5.440666666666668	1.0
775.0753788170505	0.4118666666666666	5.3248	1.0
774.7207342832082	0.41509999999999997	5.493733333333333	1.0
774.7207342832082	0.41509999999999997	5.482266666666666	1.0
774.3629122889648	0.41426666666666656	5.209733333333333	1.0
774.3629122889648	0.4033999999999999	5.209733333333333	1.0
774.3629122889648	0.3898333333333333	5.218133333333333	1.0
773.6526357949169	0.40273333333333333	5.220533333333333	1.0
773.6526357949169	0.3856666666666666	5.117466666666667	1.0
773.3004328535773	0.3990999999999999	5.1197333333333335	1.0
773.3004328535773	0.4175666666666666	5.341466666666666	1.0
772.4194453265702	0.4209333333333333	5.589733333333332	1.0
772.4194453265702	0.4119333333333332	5.333466666666666	1.0
772.4194453265702	0.4184999999999999	5.456533333333334	1.0
772.1498755290296	0.43543333333333323	5.713333333333333	1.0
772.1498755290296	0.43543333333333323	5.587999999999999	1.0
772.1498475924451	0.4190666666666666	5.269866666666667	1.0
772.1498475924451	0.40933333333333327	5.269866666666667	1.0
771.9814234859817	0.37879999999999997	4.966266666666667	1.0
771.9814234859817	0.38889999999999997	4.883066666666667	1.0
771.9814234859817	0.3950666666666666	5.2336	1.0
771.359485477909	0.4002666666666666	5.237733333333333	1.0
771.359485477909	0.3725666666666666	4.7908	1.0
771.0051365909114	0.4029999999999999	5.158799999999999	1.0
771.0051365909114	0.41216666666666657	5.224266666666668	1.0
771.0051365909114	0.4041333333333333	5.150399999999999	1.0
770.5707728165897	0.3997	5.1084	1.0
770.5707728165897	0.3997	5.058000000000001	1.0
770.216290239301	0.3905333333333333	4.817733333333334	1.0
770.216290239301	0.37413333333333326	4.817733333333334	1.0
779.5404758642633	0.4017333333333333	5.155866666666666	1.0
779.5404758642633	0.40106666666666657	4.989733333333333	1.0
779.5404758642633	0.39269999999999994	4.915333333333333	1.0
769.0763032485776	0.4242999999999999	5.198666666666666	1.0
769.0763032485776	0.44366666666666654	5.7052	1.0
769.0781556128264	0.44163333333333327	5.706	1.0
769.0781556128264	0.45646666666666663	5.6788	1.0
768.9933965611821	0.43	5.388933333333333	1.0
768.9933965611821	0.37009999999999993	4.641333333333334	1.0
768.9933965611821	0.37009999999999993	4.422800000000001	1.0
768.6421040266368	0.35563333333333325	4.635866666666667	1.0
768.6421040266368	0.37326666666666664	4.635866666666667	1.0
768.2118074872707	0.3697666666666666	4.569866666666667	1.0
768.2118074872707	0.3911333333333333	4.8267999999999995	1.0
768.2118074872707	0.4004999999999999	5.0174666666666665	1.0
767.9414639639689	0.4202999999999999	5.239333333333334	1.0
767.9414639639689	0.3976666666666666	4.9610666666666665	1.0
767.5080302800247	0.40349999999999997	4.999066666666667	1.0
767.5080302800247	0.3973666666666666	4.898933333333335	1.0
767.0767031948368	0.3837333333333333	4.804	1.0
767.0767031948368	0.3837333333333333	4.702533333333334	1.0
767.0767031948368	0.37413333333333326	4.645466666666667	1.0
767.0735974276531	0.3796666666666666	4.645466666666667	1.0
767.0735974276531	0.37799999999999995	4.622400000000001	1.0
766.0301494300073	0.3944666666666666	4.759600000000001	1.0
766.0301494300073	0.4201999999999999	5.220533333333333	1.0
765.9453711948631	0.4123666666666666	5.087200000000001	1.0
765.9453711948631	0.40256666666666663	4.854666666666667	1.0
765.9453711948631	0.3915333333333333	4.663600000000001	1.0
765.9074560012082	0.37679999999999997	4.505333333333334	1.0
765.9074560012082	0.4091333333333333	4.987866666666667	1.0
765.5134795598581	0.44586666666666663	5.321066666666667	1.0
765.5134795598581	0.44586666666666663	5.381200000000001	1.0
765.5134795598581	0.4477999999999999	5.2536	1.0
764.9042124430119	0.4321666666666666	5.2536	1.0
764.9042124430119	0.414	4.9856	1.0
764.9041552802391	0.4221333333333333	4.9708	1.0
764.9041552802391	0.4086666666666666	4.935466666666667	1.0
764.9041552802391	0.40263333333333323	4.834266666666666	1.0
764.9041552802391	0.40429999999999994	4.7889333333333335	1.0
764.9041552802391	0.41343333333333326	4.775066666666667	1.0
764.3890444398962	0.39293333333333325	4.7604	1.0
764.3890444398962	0.38769999999999993	4.641466666666667	1.0
763.9582438330687	0.38209999999999994	4.500133333333333	1.0
763.9582438330687	0.38209999999999994	4.44	1.0
763.9582438330687	0.37583333333333324	4.430533333333335	1.0
763.9551578944237	0.3797333333333333	4.430533333333335	1.0
763.9551578944237	0.37399999999999994	4.444800000000001	1.0
763.9605805868464	0.3904999999999999	4.59	1.0
763.9605805868464	0.3645999999999999	4.274666666666667	1.0
762.839075521909	0.35366666666666663	3.961733333333333	1.0
762.839075521909	0.36099999999999993	3.890799999999999	1.0
762.839075521909	0.34643333333333326	3.8981333333333326	1.0
762.41229756295	0.3510666666666666	4.0212	1.0
762.41229756295	0.37373333333333325	4.134266666666667	1.0
762.41229756295	0.34546666666666664	3.962266666666666	1.0
762.41229756295	0.34546666666666664	3.880666666666666	1.0
762.1499803111512	0.35719999999999996	3.921466666666667	1.0
762.1499803111512	0.34156666666666663	3.921466666666667	1.0
762.1499803111512	0.3662333333333333	4.0687999999999995	1.0
762.15001506615	0.3730666666666666	4.274933333333333	1.0
762.15001506615	0.38673333333333326	4.4196	1.0
761.6344066836966	0.3917	4.393466666666667	1.0
761.6344066836966	0.3946333333333333	4.360666666666668	1.0
761.6344066836966	0.3930666666666666	4.305733333333333	1.0
757.6311537733768	0.3956333333333333	4.324933333333333	1.0
757.6311537733768	0.4072666666666666	4.406933333333334	1.0
757.6320677362373	0.4220999999999999	4.550933333333334	1.0
757.6320677362373	0.4220999999999999	4.591466666666667	1.0
757.2908110885969	0.4272999999999999	4.591466666666667	1.0
757.2908110885969	0.40669999999999995	4.330266666666668	1.0
757.2908110885969	0.3627999999999999	3.8086666666666673	1.0
757.2069782330899	0.3461666666666666	3.7816	1.0
757.2069782330899	0.3598999999999999	3.86	1.0
757.2077828570052	0.4033666666666666	4.347333333333334	1.0
757.2077828570052	0.4233666666666666	4.682266666666667	1.0
757.2077828570052	0.4451666666666666	4.775466666666667	1.0
756.9491303967246	0.44049999999999995	4.760666666666666	1.0
756.9491303967246	0.41293333333333326	4.468266666666667	1.0
756.5273305729936	0.41293333333333326	4.55	1.0
756.5273305729936	0.4213999999999999	4.595866666666668	1.0
756.5265401359483	0.4331333333333332	4.595866666666668	1.0
756.5265401359483	0.4188333333333333	4.5149333333333335	1.0
756.5265401359483	0.39853333333333324	4.259333333333334	1.0
756.1082394543392	0.3928	4.1273333333333335	1.0
756.1082394543392	0.3975999999999999	4.216666666666667	1.0
755.8503371862083	0.4003	4.282133333333333	1.0
755.8503371862083	0.4108333333333333	4.268666666666666	1.0
755.8503371862083	0.40593333333333326	4.247866666666667	1.0
755.0908307298092	0.42853333333333327	4.428	1.0
755.0908307298092	0.42863333333333326	4.5332	1.0
755.0908307298092	0.42863333333333326	4.077733333333334	1.0
755.0908307298092	0.3968	4.046666666666667	1.0
755.0908307298092	0.4003666666666666	4.046666666666667	1.0
755.0908307298092	0.3966333333333333	3.9787999999999997	1.0
755.0908307298092	0.38433333333333325	4.003866666666667	1.0
753.9998588824086	0.4316666666666666	4.610133333333334	1.0
753.9998588824086	0.4543666666666666	4.679200000000001	1.0
753.9981029321323	0.45813333333333334	4.677600000000001	1.0
753.9981029321323	0.4474666666666665	4.594533333333334	1.0
753.9981029321323	0.4442666666666666	4.529733333333334	1.0
753.5796893800667	0.4575666666666666	4.575466666666666	1.0
753.5796893800667	0.4575666666666666	4.3928	1.0
753.2445278499567	0.424	4.155466666666667	1.0
753.2445278499567	0.41469999999999996	4.155466666666667	1.0
752.9064080777321	0.42813333333333325	4.3453333333333335	1.0
752.9064080777321	0.4371666666666666	4.432266666666668	1.0
752.9064080777321	0.4377333333333333	4.3596	1.0
752.154079300973	0.4245666666666666	4.1216	1.0
752.154079300973	0.4168999999999999	4.272533333333334	1.0
752.0754670923855	0.42663333333333325	4.283600000000001	1.0
752.0754670923855	0.40296666666666664	3.985466666666666	1.0
751.7392626857771	0.4323666666666666	4.197866666666667	1.0
751.7392626857771	0.46666666666666656	4.6104	1.0
751.7392626857771	0.46666666666666656	4.2350666666666665	1.0
751.0699899392259	0.43849999999999995	4.201599999999999	1.0
751.0699899392259	0.4292666666666666	4.201599999999999	1.0
751.0709871472587	0.45536666666666664	4.438400000000001	1.0
751.0709871472587	0.45093333333333324	4.453333333333334	1.0
751.0709871472587	0.44113333333333327	4.384533333333334	1.0
750.7381800585613	0.4233666666666666	4.1548	1.0
750.7381800585613	0.4424999999999999	4.3356	1.0
750.4037028760705	0.4553999999999999	4.3344000000000005	1.0
750.4037028760705	0.4318333333333333	4.123333333333333	1.0
750.23831037498	0.4196333333333333	3.9303999999999997	1.0
750.23831037498	0.41359999999999997	3.9427999999999996	1.0
750.23831037498	0.41359999999999997	4.308666666666667	1.0
