wavelength(nm)	flourescence PMT(V)	ti_saph Power (V)	Gain (V)
800.295415448045	0.1756666666666666	1.09	1.1
800.295415448045	0.18309999999999993	1.09	1.1
800.81012999115	0.19013333333333327	1.16	1.1
801.1009863200636	0.19279999999999992	1.1584	1.1
801.1009821379932	0.17729999999999996	1.0829333333333333	1.1
801.0977366770311	0.17279999999999995	1.0788	1.1
801.0977366770311	0.18066666666666661	1.0788	1.1
801.100125821645	0.18239999999999992	1.0796	1.1
801.1921861678447	0.18649999999999992	1.08	1.1
801.2833780985965	0.18409999999999993	1.151066666666667	1.1
801.2833780985965	0.1954666666666666	1.1658666666666668	1.1
801.0673268991371	0.1954666666666666	1.1324	1.1
801.3833862453907	0.1828666666666666	1.0796	1.1
801.3833862453907	0.17979999999999993	1.0796	1.1
802.6217319403833	0.1827999999999999	1.1345333333333336	1.1
802.6217319403833	0.18733333333333324	1.1304000000000003	1.1
802.722642565506	0.19033333333333327	1.16	1.1
802.8142306813226	0.18469999999999992	1.1606666666666667	1.1
803.3873669229534	0.18469999999999992	1.1592000000000002	1.1
803.5234200747982	0.18989999999999996	1.1201333333333334	1.1
803.5234200747982	0.18873333333333325	1.1365333333333334	1.1
803.5234200747982	0.2012666666666666	1.2118666666666669	1.1
804.2416165994218	0.19166666666666662	1.1774666666666667	1.1
804.1469418783556	0.19166666666666662	1.1568000000000003	1.1
804.3479164948279	0.1903666666666666	1.1445333333333336	1.1
804.3479164948279	0.18309999999999993	1.1445333333333336	1.1
804.3485220439677	0.18689999999999993	1.1584	1.1
804.3383375391188	0.17723333333333327	1.1580000000000004	1.1
804.440865775961	0.18889999999999996	1.1369333333333336	1.1
804.6270590410589	0.18469999999999995	1.0786666666666667	1.1
804.6270590410589	0.19223333333333326	1.1361333333333334	1.1
804.585245909239	0.18999999999999992	1.1228	1.1
804.7259272485774	0.1935666666666666	1.1745333333333337	1.1
804.9117872057996	0.19893333333333327	1.2193333333333336	1.1
804.9117872057996	0.1898666666666666	1.1732	1.1
805.8732109885945	0.1898666666666666	1.2222666666666668	1.1
806.0714464723667	0.19213333333333327	1.2066666666666668	1.1
806.0770976224577	0.19859999999999992	1.2066666666666668	1.1
806.2629440599982	0.19853333333333328	1.2509333333333335	1.1
806.2629440599982	0.19563333333333327	1.2482666666666669	1.1
806.9374889506481	0.18536666666666662	1.171066666666667	1.1
807.0302187280215	0.19093333333333326	1.1590666666666667	1.1
807.4174136479222	0.19109999999999994	1.16	1.1
807.5125250768555	0.18746666666666661	1.16	1.1
807.5125250768555	0.18453333333333327	1.1600000000000001	1.1
807.5125250768555	0.18339999999999995	1.1469333333333334	1.1
807.7116770660359	0.17759999999999992	1.1380000000000001	1.1
807.8061698017124	0.17759999999999992	1.1557333333333335	1.1
807.8061698017124	0.18399999999999994	1.184266666666667	1.1
807.8995657418785	0.2014666666666666	1.184266666666667	1.1
807.9037896795925	0.20229999999999992	1.2402666666666669	1.1
807.9049240793984	0.1999999999999999	1.2306666666666668	1.1
808.0980580102713	0.18829999999999994	1.1714666666666669	1.1
808.0980580102713	0.19793333333333327	1.1612000000000002	1.1
808.0590349905133	0.18653333333333327	1.2432000000000003	1.1
808.2894388754969	0.1912666666666666	1.1585333333333336	1.1
808.240247907099	0.18459999999999993	1.1270666666666667	1.1
808.240247907099	0.18689999999999993	1.1845333333333334	1.1
808.240247907099	0.18493333333333328	1.2302666666666668	1.1
809.4565432329845	0.18493333333333328	1.224266666666667	1.1
809.4551664920779	0.19816666666666657	1.2005333333333337	1.1
809.4551664920779	0.1960999999999999	1.2005333333333337	1.1
809.8486215158498	0.1942666666666666	1.182666666666667	1.1
809.8486215158498	0.19083333333333327	1.1773333333333336	1.1
810.2349631370844	0.19526666666666662	1.1613333333333336	1.1
810.4233896688468	0.19479999999999992	1.2916000000000003	1.1
810.6261931594286	0.1911666666666666	1.3165333333333336	1.1
810.7209060795975	0.19046666666666656	1.2910666666666668	1.1
810.7209060795975	0.1913666666666666	1.2066666666666668	1.1
811.112579276041	0.19586666666666658	1.3181333333333336	1.1
811.1127463359802	0.20266666666666658	1.3288000000000004	1.1
811.3113671484177	0.20266666666666658	1.3205333333333336	1.1
811.3113671484177	0.2024666666666666	1.3205333333333336	1.1
811.3091423902014	0.19199999999999992	1.2369333333333334	1.1
811.4092296045962	0.1981666666666666	1.243066666666667	1.1
811.4074610632757	0.19313333333333327	1.3208000000000002	1.1
811.5023305008582	0.19019999999999992	1.3056000000000003	1.1
811.5023305008582	0.19369999999999993	1.2412000000000003	1.1
811.5024966001697	0.18273333333333328	1.1601333333333337	1.1
811.7951211627371	0.1783666666666666	1.1590666666666667	1.1
811.7979624717303	0.17906666666666662	1.1062666666666667	1.1
812.6806275415141	0.18843333333333326	1.2206666666666668	1.1
812.6806275415141	0.19279999999999992	1.2868000000000002	1.1
813.163012836955	0.19279999999999992	1.1613333333333336	1.1
813.0698476750666	0.18896666666666662	1.1613333333333336	1.1
813.1640860594342	0.18483333333333324	1.1604	1.1
813.1622182592864	0.18743333333333329	1.16	1.1
813.1622182592864	0.18303333333333327	1.1856000000000002	1.1
813.1622182592864	0.18289999999999992	1.2717333333333336	1.1
814.0465152989447	0.18053333333333327	1.2585333333333335	1.1
814.5342694744736	0.1917666666666666	1.3137333333333336	1.1
814.7388465782019	0.19703333333333325	1.3673333333333335	1.1
814.7388465782019	0.20066666666666658	1.3958666666666666	1.1
814.73884292109	0.20053333333333326	1.4	1.1
814.7388633569317	0.20053333333333326	1.3998666666666668	1.1
814.7387610222733	0.19593333333333324	1.3998666666666668	1.1
815.128881760732	0.19673333333333326	1.3998666666666668	1.1
815.128881760732	0.19459999999999994	1.2888000000000004	1.1
815.3269158491306	0.18666666666666662	1.1869333333333334	1.1
815.3261186278661	0.19343333333333323	1.322266666666667	1.1
816.210707971471	0.20049999999999993	1.3249333333333333	1.1
816.210707971471	0.18779999999999994	1.1805333333333337	1.1
816.2111032396908	0.18229999999999993	1.16	1.1
816.9070786066035	0.1787666666666666	1.2037333333333338	1.1
816.9084988672818	0.17796666666666663	1.3089333333333335	1.1
816.9071218667351	0.1834999999999999	1.3001333333333336	1.1
816.9071218667351	0.1834999999999999	1.2517333333333336	1.1
817.503720456374	0.18579999999999994	1.1649333333333334	1.1
817.4947833479724	0.16849999999999993	1.1649333333333334	1.1
817.7968020750384	0.1848666666666666	1.1601333333333335	1.1
818.2865915559698	0.17049999999999996	1.16	1.1
818.2865915559698	0.1820666666666666	1.2686666666666668	1.1
818.2892767599585	0.18159999999999996	1.2204000000000002	1.1
818.2890647099396	0.1736666666666666	1.1857333333333335	1.1
818.5934165067357	0.1808666666666666	1.1945333333333334	1.1
818.5943146911138	0.17769999999999994	1.2309333333333337	1.1
818.5943146911138	0.17563333333333325	1.1601333333333335	1.1
818.5961333615315	0.16703333333333328	1.16	1.1
818.6900488780617	0.16703333333333328	1.16	1.1
818.5935341579917	0.1736666666666666	1.16	1.1
819.792276587391	0.17789999999999995	1.16	1.1
819.792276587391	0.1758666666666666	1.2148	1.1
819.790646754617	0.18183333333333326	1.3581333333333336	1.1
819.7907740256793	0.17179999999999992	1.3521333333333336	1.1
820.4929143461516	0.18283333333333326	1.316266666666667	1.1
820.4929143461516	0.17966666666666659	1.327866666666667	1.1
820.586216499764	0.18103333333333327	1.3374666666666668	1.1
820.4963441363569	0.17129999999999995	1.3165333333333336	1.1
821.0852715701137	0.17383333333333326	1.3197333333333336	1.1
821.1291530386187	0.17889999999999995	1.379466666666667	1.1
821.1291530386187	0.17889999999999995	1.3882666666666668	1.1
821.1291530386187	0.17849999999999994	1.3882666666666668	1.1
821.1291530386187	0.18576666666666658	1.3296000000000001	1.1
821.8856509837656	0.1785666666666666	1.3417333333333337	1.1
821.8906436219427	0.16493333333333327	1.3301333333333334	1.1
821.8906436219427	0.17733333333333326	1.3798666666666668	1.1
821.8906436219427	0.1766666666666666	1.3862666666666668	1.1
822.1951827775866	0.17493333333333327	1.327066666666667	1.1
822.1835581592709	0.16883333333333325	1.319866666666667	1.1
822.1965532929102	0.17589999999999995	1.3200000000000003	1.1
822.1965532929102	0.16773333333333326	1.2628000000000004	1.1
822.2918706467511	0.16783333333333328	1.2572000000000003	1.1
822.6922028384561	0.16783333333333328	1.3716000000000002	1.1
823.4984772755878	0.17583333333333329	1.4384	1.1
823.5026211250108	0.17289999999999991	1.4384	1.1
823.5026211250108	0.1699666666666666	1.4530666666666665	1.1
823.8976122908025	0.17729999999999996	1.3942666666666665	1.1
823.9986081693453	0.1724666666666666	1.3856	1.1
823.9986081693453	0.17423333333333327	1.3920000000000001	1.1
824.3088216541593	0.17516666666666658	1.348	1.1
824.3088216541593	0.1729333333333333	1.313466666666667	1.1
824.4034927679098	0.1689666666666666	1.2497333333333336	1.1
824.9043418926462	0.16729999999999995	1.3413333333333337	1.1
825.2117824946041	0.16546666666666662	1.316666666666667	1.1
825.2117824946041	0.16546666666666662	1.2252000000000003	1.1
825.2118257807837	0.15869999999999995	1.2392000000000003	1.1
825.3127308884657	0.16276666666666662	1.2392000000000003	1.1
825.6148521962517	0.17349999999999993	1.321866666666667	1.1
825.6188874531528	0.17459999999999995	1.4552	1.1
825.6188874531528	0.1659333333333333	1.4421333333333333	1.1
825.6190945337606	0.1677666666666666	1.4152000000000002	1.1
825.7153613622105	0.16749999999999993	1.3544000000000003	1.1
825.7128715298649	0.16216666666666663	1.3204000000000002	1.1
825.7128715298649	0.1675666666666666	1.327066666666667	1.1
825.7128715298649	0.17159999999999995	1.4775999999999998	1.1
826.5261574854128	0.16283333333333327	1.43	1.1
826.9299357259817	0.16283333333333327	1.2472	1.1
826.928821192027	0.15829999999999994	1.3189333333333335	1.1
827.2420899910131	0.16559999999999994	1.3189333333333335	1.1
827.2420899910131	0.1651666666666666	1.357466666666667	1.1
827.243006267245	0.1591666666666666	1.3361333333333336	1.1
827.243006267245	0.15769999999999995	1.3200000000000003	1.1
828.0440184843884	0.1624666666666666	1.3641333333333336	1.1
828.0440184843884	0.1670666666666666	1.4661333333333333	1.1
828.0440184843884	0.1686666666666666	1.48	1.1
828.2497088737281	0.1671333333333333	1.4782666666666666	1.1
828.5643546511307	0.16733333333333328	1.4364	1.1
828.661042240825	0.15749999999999995	1.3292000000000002	1.1
828.858651626482	0.16816666666666658	1.4010666666666667	1.1
828.858651626482	0.16816666666666658	1.4604	1.1
829.370114580476	0.1657333333333333	1.324266666666667	1.1
829.3813463339527	0.15703333333333327	1.324266666666667	1.1
829.4840068373828	0.16959999999999995	1.4796	1.1
829.3814000980841	0.17076666666666662	1.48	1.1
829.3814000980841	0.16659999999999997	1.4076	1.1
830.0876522321573	0.16619999999999996	1.3768000000000002	1.1
829.9824603680281	0.16449999999999995	1.3954666666666666	1.1
830.0859596041729	0.15959999999999994	1.3577333333333335	1.1
830.4895903220793	0.1558333333333333	1.301866666666667	1.1
830.4895903220793	0.16259999999999994	1.4673333333333334	1.1
830.8052089951769	0.16113333333333327	1.3952000000000002	1.1
830.909597360804	0.16113333333333327	1.3656000000000001	1.1
831.5203034434091	0.16183333333333327	1.3484000000000003	1.1
831.5203034434091	0.1602666666666666	1.3484000000000003	1.1
831.7304689370719	0.16073333333333328	1.4657333333333333	1.1
831.7304689370719	0.1583333333333333	1.322266666666667	1.1
831.7260326307751	0.16653333333333326	1.2400000000000002	1.1
831.9383409529818	0.16296666666666662	1.2510666666666668	1.1
831.9383409529818	0.16033333333333327	1.3734666666666668	1.1
832.5525405722594	0.16589999999999994	1.2400000000000002	1.1
832.6541758471894	0.16803333333333328	1.3883999999999999	1.1
832.9583776760085	0.1800666666666666	1.4587999999999999	1.1
832.95895007413	0.1698666666666666	1.4014666666666666	1.1
832.95895007413	0.17719999999999994	1.4001333333333335	1.1
833.061979556437	0.17719999999999994	1.318266666666667	1.1
833.061979556437	0.1755666666666666	1.297466666666667	1.1
833.37209955415	0.1827666666666666	1.297466666666667	1.1
833.8880408361504	0.18213333333333329	1.3353333333333335	1.1
833.8880408361504	0.18933333333333327	1.2772000000000003	1.1
833.9892805502913	0.19663333333333327	1.1484000000000003	1.1
833.9898152245447	0.2077666666666666	1.1592000000000002	1.1
834.5535890231978	0.2269666666666666	1.1057333333333335	1.1
834.7183751963778	0.22886666666666655	1.0189333333333332	1.1
834.7183751963778	0.18249999999999994	0.47893333333333343	1.1
834.7207478123255	0.1700333333333333	0.22733333333333353	1.1
835.2300245143945	0.14426666666666663	0.07706666666666673	1.1
835.2298705388303	0.14426666666666663	0.0040000000000000036	1.1
835.6466514158952	0.12529999999999997	0.0040000000000000036	1.1
835.6466514158952	0.12046666666666662	0.0020000000000000018	1.1
835.750307610726	0.12566666666666662	-0.015600000000000013	1.1
835.746947893949	0.11143333333333331	-0.0334666666666667	1.1
835.7503702302323	0.11169999999999995	-0.034800000000000025	1.1
835.7503702302323	0.1079333333333333	-0.031333333333333366	1.1
836.0669027879055	0.1161333333333333	-0.0346666666666667	1.1
836.5731031306913	0.11329999999999996	-0.034266666666666695	1.1
836.6891844917906	0.11476666666666664	-0.03413333333333336	1.1
836.7949166796706	0.10536666666666662	-0.03373333333333336	1.1
836.7949166796706	0.10536666666666662	-0.034933333333333365	1.1
836.9952364300793	0.10913333333333329	-0.03200000000000003	1.1
837.1041535989034	0.10149999999999997	-0.03200000000000003	1.1
837.4164573218304	0.11289999999999997	-0.034933333333333365	1.1
837.4153195846076	0.10933333333333328	-0.031600000000000024	1.1
837.4153195846076	0.10179999999999995	-0.03240000000000003	1.1
837.4165478619032	0.10556666666666661	-0.03266666666666669	1.1
837.7289521105029	0.10986666666666663	-0.0334666666666667	1.1
837.7294491445324	0.11076666666666664	-0.03293333333333336	1.1
838.1463588577083	0.10346666666666661	-0.03320000000000003	1.1
838.1463588577083	0.10409999999999997	-0.03240000000000003	1.1
838.6651789465844	0.1074333333333333	-0.03200000000000003	1.1
838.983996176808	0.1074333333333333	-0.03413333333333336	1.1
839.0880279040081	0.11463333333333328	-0.03413333333333336	1.1
839.2899740781877	0.10776666666666664	-0.032533333333333365	1.1
839.2899740781877	0.11259999999999995	-0.03200000000000003	1.1
839.2900043783527	0.10889999999999996	-0.03106666666666669	1.1
839.5070031542399	0.11129999999999995	-0.03240000000000003	1.1
839.9194095862322	0.11119999999999995	-0.0334666666666667	1.1
840.3430341499628	0.11109999999999995	-0.034266666666666695	1.1
840.3430341499628	0.10909999999999996	-0.0350666666666667	1.1
840.441687965831	0.10599999999999996	-0.03293333333333336	1.1
840.6619771036715	0.10656666666666662	-0.033066666666666696	1.1
837.0179006328397	0.10656666666666662	-0.03373333333333336	1.1
837.0179006328397	0.11006666666666663	-0.032266666666666693	1.1
840.9646095793853	0.10953333333333329	-0.032266666666666693	1.1
841.2898157334527	0.10916666666666662	-0.031866666666666696	1.1
841.2886647538724	0.11469999999999994	-0.0338666666666667	1.1
841.3974069623443	0.10346666666666662	-0.03093333333333336	1.1
841.3974069623443	0.10489999999999995	-0.03266666666666669	1.1
841.3987042157185	0.11059999999999995	-0.033066666666666696	1.1
841.8087321947359	0.11076666666666661	-0.03213333333333336	1.1
841.8087308948728	0.10649999999999996	-0.0346666666666667	1.1
842.030014264758	0.10656666666666663	-0.03360000000000003	1.1
842.030014264758	0.10849999999999994	-0.03373333333333336	1.1
842.336392714274	0.10849999999999994	-0.03200000000000003	1.1
842.6523561968014	0.10846666666666664	-0.0338666666666667	1.1
842.6523561968014	0.10516666666666662	-0.0338666666666667	1.1
842.6523561968014	0.11063333333333328	-0.03266666666666669	1.1
842.6523561968014	0.10626666666666663	-0.03360000000000003	1.1
843.397943025827	0.10596666666666661	-0.03333333333333336	1.1
843.3979275078307	0.10413333333333329	-0.03093333333333336	1.1
843.8205377558219	0.11236666666666663	-0.0338666666666667	1.1
844.3489619491615	0.10463333333333329	-0.03173333333333336	1.1
844.3489619491615	0.10916666666666662	-0.03373333333333336	1.1
844.6622510123296	0.10913333333333329	-0.03213333333333336	1.1
844.6623308717573	0.10393333333333328	-0.032266666666666693	1.1
844.8694580427397	0.10393333333333328	-0.03453333333333337	1.1
844.8713419191179	0.10976666666666662	-0.03520000000000003	1.1
844.8713419191179	0.11299999999999998	-0.03520000000000003	1.1
844.8698353700611	0.11089999999999996	-0.03293333333333336	1.1
840.8656492294374	0.11086666666666664	-0.03520000000000003	1.1
840.8656492294374	0.10659999999999994	-0.03333333333333336	1.1
840.5453200305049	0.10836666666666661	-0.03440000000000003	1.1
840.3416548064637	0.10836666666666661	-0.03413333333333336	1.1
840.3427186229139	0.10199999999999995	-0.0350666666666667	1.1
839.9204237487916	0.10956666666666663	-0.0350666666666667	1.1
839.9204237487916	0.1099333333333333	-0.035466666666666695	1.1
839.5026895527868	0.11959999999999996	-0.03586666666666669	1.1
839.5098909846314	0.11199999999999993	-0.03520000000000003	1.1
839.1895524421698	0.10866666666666662	-0.03240000000000003	1.1
838.9853202612499	0.10943333333333329	-0.032266666666666693	1.1
838.9853202612499	0.10916666666666662	-0.033066666666666696	1.1
839.088012455684	0.11089999999999996	-0.032533333333333365	1.1
838.1417111530179	0.10839999999999994	-0.03293333333333336	1.1
838.1462061563336	0.11219999999999994	-0.03440000000000003	1.1
837.7234938192736	0.11219999999999994	-0.031333333333333366	1.1
837.7234938192736	0.10966666666666662	-0.031333333333333366	1.1
837.7304585155637	0.11419999999999994	-0.034800000000000025	1.1
837.5159915779806	0.10273333333333329	-0.031600000000000024	1.1
837.4168158401361	0.10546666666666663	-0.03333333333333336	1.1
837.4168158401361	0.11093333333333329	-0.03453333333333337	1.1
837.258189765116	0.10916666666666662	-0.032533333333333365	1.1
837.1136832064194	0.10636666666666664	-0.03400000000000003	1.1
836.7911225076476	0.10559999999999996	-0.03293333333333336	1.1
836.5868821877801	0.11149999999999996	-0.03360000000000003	1.1
836.5868821877801	0.11226666666666661	-0.03360000000000003	1.1
836.5440376504868	0.11226666666666661	-0.032266666666666693	1.1
836.0633305632846	0.10459999999999996	-0.033066666666666696	1.1
835.7516626458058	0.10536666666666662	-0.033066666666666696	1.1
835.7538577873311	0.10483333333333328	-0.0334666666666667	1.1
835.7538577873311	0.11089999999999994	-0.0334666666666667	1.1
835.4433917473111	0.10966666666666662	-0.030666666666666693	1.1
835.6448503328928	0.11996666666666662	-0.024533333333333355	1.1
835.2396466252064	0.11949999999999995	-0.023733333333333353	1.1
835.4442114086651	0.11806666666666663	-0.009600000000000008	1.1
835.4442114086651	0.12793333333333326	0.01893333333333335	1.1
834.7233622011257	0.14333333333333328	0.11306666666666677	1.1
834.718401038158	0.17123333333333327	0.24173333333333355	1.1
834.3060392347397	0.17123333333333327	0.6212000000000001	1.1
834.3060392347397	0.1999999999999999	0.6212000000000001	1.1
834.198630652746	0.23343333333333324	1.0482666666666667	1.1
833.990551585487	0.23343333333333324	1.0482666666666667	1.1
833.8932810590886	0.23343333333333324	1.0482666666666667	1.1
833.4790044772243	0.23343333333333324	1.1105333333333332	1.1
833.4790044772243	0.18223333333333325	1.1105333333333332	1.1
833.4783639938795	0.1966666666666666	1.3904	1.1
833.3739862031266	0.19883333333333325	1.4494666666666667	1.1
833.3742322867571	0.19199999999999992	1.3897333333333335	1.1
832.9605902462694	0.17953333333333327	1.3129333333333337	1.1
832.9605902462694	0.1776666666666666	1.4062666666666666	1.1
832.9626211378824	0.17823333333333327	1.4461333333333333	1.1
832.9626211378824	0.1780666666666666	1.4785333333333333	1.1
832.6518211314543	0.1739999999999999	1.4704	1.1
832.651821845584	0.16683333333333328	1.3817333333333337	1.1
832.651821845584	0.16683333333333328	1.3602666666666667	1.1
832.2359936709456	0.17563333333333328	1.3628	1.1
832.2359936709456	0.1644333333333333	1.3628	1.1
831.7271304667665	0.15339999999999995	1.228666666666667	1.1
831.5165096095577	0.15183333333333326	1.2433333333333336	1.1
831.5165096095577	0.16213333333333327	1.4352	1.1
831.2195970698831	0.1661333333333333	1.478	1.1
831.0077532706151	0.16806666666666661	1.4025333333333334	1.1
830.5905328792694	0.16513333333333327	1.3882666666666668	1.1
830.3910950575073	0.16269999999999996	1.3257333333333334	1.1
830.3910950575073	0.1621666666666666	1.317466666666667	1.1
829.9842443110139	0.16196666666666662	1.292266666666667	1.1
829.9878874223514	0.16196666666666662	1.3929333333333334	1.1
829.8857353422803	0.1605333333333333	1.4001333333333335	1.1
829.8857353422803	0.16489999999999994	1.4001333333333335	1.1
829.3712349255202	0.15786666666666663	1.321866666666667	1.1
829.479621140603	0.15859999999999994	1.3509333333333335	1.1
829.2669977087561	0.16119999999999995	1.342266666666667	1.1
829.2670903505672	0.15543333333333328	1.3189333333333335	1.1
829.2670903505672	0.1499666666666666	1.2990666666666668	1.1
829.2670903505672	0.1601333333333333	1.4747999999999999	1.1
829.2670903505672	0.16959999999999995	1.365866666666667	1.1
828.6571950807622	0.15879999999999994	1.3437333333333337	1.1
828.6571950807622	0.16459999999999994	1.3741333333333337	1.1
828.6571950807622	0.16459999999999994	1.3924	1.1
827.3763162257547	0.16123333333333326	1.4546666666666666	1.1
827.7492563427064	0.1644333333333333	1.4546666666666666	1.1
827.3400455182518	0.16609999999999994	1.4578666666666666	1.1
827.3400455182518	0.16963333333333327	1.3294666666666668	1.1
827.3400455182518	0.15803333333333328	1.3214666666666668	1.1
827.2433993942641	0.16739999999999994	1.3886666666666667	1.1
827.0277218162464	0.1684666666666666	1.388	1.1
826.831947675634	0.15253333333333324	1.3160000000000003	1.1
826.1145234353453	0.15909999999999994	1.265466666666667	1.1
826.1145234353453	0.16416666666666663	1.3372000000000002	1.1
825.7152753760195	0.16759999999999994	1.3529333333333335	1.1
825.6188609976876	0.16759999999999994	1.3344000000000003	1.1
825.614423459267	0.1712666666666666	1.3833333333333333	1.1
825.6169180994905	0.15959999999999994	1.3833333333333333	1.1
825.6169180994905	0.16863333333333327	1.4369333333333332	1.1
825.407715891578	0.15696666666666662	1.48	1.1
825.3115854934294	0.16859999999999994	1.4286666666666668	1.1
825.3102087002655	0.17006666666666662	1.3872	1.1
825.3102087002655	0.16329999999999995	1.290666666666667	1.1
824.8078560544728	0.16333333333333327	1.3469333333333338	1.1
824.4035668721137	0.16829999999999992	1.3946666666666667	1.1
824.400999654012	0.16529999999999995	1.2412	1.1
824.403001320788	0.16639999999999996	1.249866666666667	1.1
824.403001320788	0.16639999999999996	1.3673333333333335	1.1
824.092608858062	0.17313333333333328	1.3798666666666668	1.1
824.092608858062	0.16059999999999997	1.3798666666666668	1.1
823.5008462679249	0.17103333333333326	1.3430666666666669	1.1
823.4942052153167	0.17329999999999993	1.4705333333333332	1.1
823.4942052153167	0.18543333333333328	1.48	1.1
822.4872098218481	0.17653333333333326	1.4717333333333333	1.1
822.4872088198797	0.16586666666666658	1.3588000000000002	1.1
822.1347799045202	0.17779999999999993	1.3045333333333333	1.1
822.1883714196784	0.1697666666666666	1.3174666666666668	1.1
822.1883714196784	0.1794666666666666	1.321866666666667	1.1
821.750055849402	0.16889999999999994	1.3569333333333335	1.1
821.7919712902686	0.16889999999999994	1.3970666666666667	1.1
821.7932509707017	0.18549999999999991	1.3741333333333337	1.1
821.7922104426609	0.1792666666666666	1.3741333333333337	1.1
821.7922104426609	0.1786666666666666	1.324	1.1
821.7922104426609	0.17739999999999995	1.319466666666667	1.1
820.9898167556928	0.1903666666666666	1.3445333333333336	1.1
820.9898865999265	0.18539999999999993	1.3205333333333336	1.1
820.5893573628028	0.1764999999999999	1.3148000000000002	1.1
820.5893573628028	0.18503333333333324	1.3217333333333336	1.1
820.4938925070269	0.17549999999999993	1.3364000000000003	1.1
819.9233574745954	0.17916666666666659	1.376266666666667	1.1
819.7889466754585	0.1847666666666666	1.3744	1.1
819.7889466754585	0.1847666666666666	1.3965333333333334	1.1
819.7902000228934	0.1829666666666666	1.3730666666666667	1.1
819.7902000228934	0.17936666666666662	1.3730666666666667	1.1
818.5921200019577	0.17859999999999995	1.305066666666667	1.1
818.5921200019577	0.18596666666666659	1.2965333333333335	1.1
818.5921200019577	0.17733333333333326	1.1890666666666667	1.1
818.5909908747508	0.17779999999999993	1.2492	1.1
818.5909908747508	0.1730666666666666	1.2797333333333336	1.1
818.2903462305637	0.18123333333333325	1.2401333333333335	1.1
818.1914255903674	0.1732666666666666	1.2376000000000003	1.1
818.1914255903674	0.18513333333333326	1.2597333333333336	1.1
817.7979373155905	0.19503333333333325	1.3193333333333335	1.1
817.7981091602392	0.17589999999999995	1.1872	1.1
817.4927037330496	0.17589999999999995	1.1702666666666668	1.1
817.4028066864105	0.1783666666666666	1.1702666666666668	1.1
817.4028066864105	0.18543333333333328	1.2077333333333335	1.1
817.311184865067	0.1837666666666666	1.283466666666667	1.1
816.9082340720915	0.18829999999999994	1.319866666666667	1.1
816.9066728740795	0.18729999999999994	1.3200000000000003	1.1
816.2121220814612	0.18746666666666661	1.2792000000000003	1.1
816.2121220814612	0.1777666666666666	1.16	1.1
815.32711770037	0.19149999999999998	1.3108000000000002	1.1
815.3251772242179	0.19316666666666657	1.3820000000000001	1.1
815.3207248932375	0.1953666666666666	1.3430666666666669	1.1
815.3207248932375	0.1953666666666666	1.1634666666666666	1.1
814.7384070596701	0.18746666666666661	1.2820000000000003	1.1
814.7375820128499	0.1908666666666666	1.2820000000000003	1.1
814.7387535846024	0.19473333333333326	1.3869333333333336	1.1
814.7397673528142	0.20259999999999992	1.3996	1.1
814.7397673528142	0.19579999999999995	1.3997333333333335	1.1
814.5373624287298	0.2024666666666666	1.3936000000000002	1.1
814.0485809912716	0.20409999999999992	1.3728	1.1
814.0438741616009	0.18539999999999993	1.2561333333333335	1.1
813.1649722023083	0.18923333333333328	1.2432	1.1
813.1649722023083	0.19223333333333326	1.2506666666666668	1.1
813.1649673347348	0.20589999999999992	1.3290666666666668	1.1
813.1659293200231	0.20589999999999992	1.3364000000000003	1.1
812.8646107734465	0.19389999999999993	1.3205333333333336	1.1
812.8645438704278	0.1995666666666666	1.3205333333333336	1.1
812.8645438704278	0.19123333333333326	1.310266666666667	1.1
811.7994663304621	0.19979999999999995	1.3448000000000002	1.1
811.5015526517695	0.19239999999999993	1.2333333333333336	1.1
811.5015014076956	0.17839999999999992	1.1488	1.1
811.5015214068785	0.18383333333333327	1.0897333333333332	1.1
811.5015214068785	0.18449999999999994	1.1302666666666665	1.1
811.501528398514	0.1831333333333333	1.1676000000000002	1.1
811.3113157311349	0.19299999999999995	1.2286666666666668	1.1
811.3113791156887	0.19503333333333325	1.2408000000000001	1.1
811.3113791156887	0.19503333333333325	1.3148000000000002	1.1
811.109694555632	0.1881333333333333	1.3886666666666667	1.1
811.1137219211079	0.20479999999999993	1.3886666666666667	1.1
810.812391294699	0.1987333333333333	1.3856	1.1
810.6238565311547	0.19143333333333326	1.2901333333333336	1.1
810.6238565311547	0.20156666666666662	1.2422666666666669	1.1
810.6258157145263	0.2000666666666666	1.312266666666667	1.1
810.1398121607922	0.1892999999999999	1.3025333333333338	1.1
809.9338065099117	0.19913333333333327	1.2164000000000001	1.1
809.4575828827569	0.19363333333333324	1.2472000000000003	1.1
809.4575828827569	0.18859999999999993	1.16	1.1
809.4575524285249	0.19393333333333326	1.16	1.1
809.4575524285249	0.19393333333333326	1.1802666666666668	1.1
809.4537858873277	0.1835666666666666	1.2424000000000002	1.1
808.2859691747865	0.19109999999999994	1.2424000000000002	1.1
808.2859691747865	0.19673333333333326	1.1921333333333337	1.1
808.1962237028371	0.19639999999999996	1.1601333333333335	1.1
808.0020973245302	0.1975666666666666	1.1625333333333334	1.1
808.0040810826276	0.1955666666666666	1.2369333333333334	1.1
808.0040810826276	0.19469999999999993	1.2010666666666667	1.1
807.9016674098119	0.1843666666666666	1.1641333333333335	1.1
807.8062060744078	0.2012666666666666	1.2381333333333335	1.1
807.8062060744078	0.1863666666666666	1.1606666666666667	1.1
807.8062060744078	0.19323333333333326	1.1596000000000002	1.1
807.8062060744078	0.19323333333333326	1.132266666666667	1.1
807.4198293978519	0.1793333333333333	1.1406666666666667	1.1
806.9403075272819	0.17609999999999995	1.1406666666666667	1.1
806.9405740093525	0.18873333333333325	1.1806666666666668	1.1
806.4564271459639	0.19473333333333326	1.1586666666666667	1.1
806.4564271459639	0.18373333333333325	1.1436000000000002	1.1
806.2604716801048	0.18489999999999995	1.1957333333333333	1.1
806.2604716801048	0.1928666666666666	1.243866666666667	1.1
805.9772414837984	0.1924666666666666	1.1878666666666668	1.1
804.8255808450513	0.19013333333333327	1.1636000000000002	1.1
804.8255808450513	0.19163333333333327	1.1598666666666668	1.1
804.6234333464819	0.18653333333333327	1.1689333333333336	1.1
804.6322407444094	0.18653333333333327	1.153066666666667	1.1
804.6324284459888	0.19069999999999993	1.1564	1.1
804.4360741707001	0.19289999999999993	1.1564	1.1
804.4360741707001	0.18423333333333328	1.0826666666666667	1.1
804.4355946258595	0.18509999999999993	1.0789333333333333	1.1
804.3395892622112	0.1854666666666666	1.0886666666666667	1.1
804.2540052046533	0.18023333333333327	1.1354666666666668	1.1
804.2540052046533	0.18679999999999994	1.1230666666666669	1.1
804.0541028873384	0.1885333333333333	1.1618666666666668	1.1
804.0568788780739	0.18873333333333328	1.1776000000000002	1.1
803.2907100681384	0.18569999999999992	1.1724	1.1
802.8174431261672	0.1914666666666666	1.1601333333333337	1.1
802.8174431261672	0.1914666666666666	1.1345333333333334	1.1
802.7226076728737	0.18899999999999995	1.1345333333333334	1.1
802.7189934838461	0.18619999999999995	1.1601333333333335	1.1
802.3364042069757	0.18699999999999994	1.2400000000000002	1.1
801.3758523686678	0.18759999999999993	1.1633333333333336	1.1
801.3758523686678	0.17593333333333325	1.0945333333333334	1.1
801.3809195106523	0.18413333333333326	1.0858666666666665	1.1
801.3840059331415	0.18719999999999995	1.0966666666666667	1.1
801.2843897925857	0.18569999999999992	1.1548000000000003	1.1
801.1918197388493	0.18753333333333325	1.1598666666666668	1.1
801.1918197388493	0.18523333333333325	1.1594666666666669	1.1
801.101234962736	0.17939999999999992	1.0773333333333333	1.1
801.1009222806646	0.17939999999999992	1.0546666666666669	1.1
801.1000362428891	0.17533333333333326	1.0546666666666669	1.1
801.1000362428891	0.18096666666666658	1.0270666666666666	1.1
800.9004014332883	0.17899999999999994	1.0385333333333333	1.1
800.8103249672118	0.18693333333333328	1.0902666666666667	1.1
800.4292323896777	0.1847999999999999	1.1484000000000003	1.1
800.4700615873477	0.17913333333333326	1.1248000000000002	1.1
800.4700615873477	0.18569999999999992	1.0798666666666668	1.1
800.1489617856544	0.17203333333333326	1.0797333333333334	1.1
