wavelength(nm)	flourescence PMT(V)	ti_saph Power (V)	Gain (V)
750.1625259475455	0.45673333333333327	4.1790666666666665	1.0
750.1625259475455	0.45673333333333327	4.181733333333333	1.0
750.1625259475455	0.4400666666666666	4.088	1.0
750.3235163287065	0.43373333333333325	4.088	1.0
750.3235163287065	0.42549999999999993	3.9379999999999997	1.0
750.3235163287065	0.43446666666666656	4.1508	1.0
750.6570994986016	0.44283333333333325	4.221066666666665	1.0
750.6570994986016	0.43810000000000004	4.145066666666667	1.0
750.9944329593718	0.4423666666666666	4.2834666666666665	1.0
750.9944329593718	0.46326666666666655	4.4344	1.0
750.9944329593718	0.47216666666666657	4.441333333333334	1.0
751.3254375784072	0.4370666666666666	4.3041333333333345	1.0
751.3254375784072	0.4427333333333333	4.2139999999999995	1.0
751.7453608369668	0.4427333333333333	4.2284	1.0
751.7453608369668	0.43686666666666657	4.2284	1.0
751.7453608369668	0.45849999999999996	4.3456	1.0
751.7453608369668	0.4538	4.296266666666667	1.0
751.7453608369668	0.46693333333333326	4.538666666666667	1.0
752.606692050664	0.4726666666666667	4.586666666666667	1.0
752.606692050664	0.4444999999999999	4.372666666666667	1.0
752.606692050664	0.41413333333333324	3.9262666666666655	1.0
752.8313560115236	0.40943333333333326	4.0410666666666675	1.0
752.8313560115236	0.4224666666666666	4.246533333333334	1.0
753.1683993830487	0.40879999999999994	4.109866666666667	1.0
753.1683993830487	0.4076666666666666	4.056666666666667	1.0
753.1683993830487	0.4076666666666666	3.9634666666666667	1.0
753.5832515373537	0.4057333333333332	3.9634666666666667	1.0
753.5832515373537	0.4346666666666666	4.2565333333333335	1.0
753.9226875530691	0.4339333333333333	4.251333333333334	1.0
753.9226875530691	0.4188333333333333	4.1648000000000005	1.0
753.9226875530691	0.42333333333333323	4.3408	1.0
754.0041970298462	0.4425666666666666	4.426000000000001	1.0
754.0041970298462	0.43636666666666657	4.434666666666667	1.0
754.2564431536556	0.4145999999999999	4.234133333333333	1.0
754.2564431536556	0.4007333333333332	3.9062666666666663	1.0
754.2564431536556	0.38786666666666664	3.8605333333333327	1.0
755.0135561232734	0.38786666666666664	3.9697333333333327	1.0
755.0135561232734	0.3876333333333333	4.1524	1.0
755.0140924413606	0.4040666666666666	4.2772	1.0
755.0140924413606	0.41189999999999993	4.2772	1.0
755.0140924413606	0.4265666666666666	4.395333333333334	1.0
755.807975131236	0.4251999999999999	4.3537333333333335	1.0
755.807975131236	0.4148666666666666	4.3456	1.0
756.1088868083284	0.3978999999999999	4.0596000000000005	1.0
756.1088868083284	0.38299999999999995	3.9664	1.0
756.1088868083284	0.38099999999999995	4.005333333333333	1.0
756.5319306448283	0.40273333333333333	4.200266666666667	1.0
756.5319306448283	0.40953333333333325	4.202533333333334	1.0
756.5317178437402	0.40953333333333325	4.121600000000001	1.0
756.5317178437402	0.4053333333333332	3.9968	1.0
756.5317178437402	0.3981666666666666	3.9968	1.0
756.8723226165267	0.39619999999999994	4.168933333333333	1.0
756.8723226165267	0.41283333333333333	4.314266666666667	1.0
756.8723226165267	0.41569999999999996	4.366533333333334	1.0
757.129385706459	0.41386666666666666	4.362000000000001	1.0
757.129385706459	0.3863333333333333	4.159200000000001	1.0
757.2106033167485	0.3898333333333333	4.049200000000001	1.0
757.2106033167485	0.38569999999999993	4.027200000000001	1.0
757.2106033167485	0.3909666666666666	4.011466666666667	1.0
757.2934231773166	0.3628666666666666	3.865333333333333	1.0
757.2934231773166	0.3628666666666666	4.091200000000001	1.0
757.3755347811115	0.3963666666666666	4.527333333333334	1.0
757.3755347811115	0.4244666666666666	4.527333333333334	1.0
757.3755347811115	0.43103333333333327	4.558666666666666	1.0
761.9154656447042	0.42139999999999994	4.640000000000001	1.0
761.9154656447042	0.4345666666666666	4.745866666666667	1.0
761.9154656447042	0.43163333333333326	4.816266666666667	1.0
761.9154656447042	0.4231666666666666	4.816133333333333	1.0
761.9154656447042	0.4348666666666666	4.751733333333333	1.0
762.0696849447551	0.4202333333333333	4.743866666666667	1.0
762.0696849447551	0.42386666666666667	4.7852	1.0
762.0703256098976	0.43879999999999997	4.9872	1.0
762.0703256098976	0.43879999999999997	5.078133333333334	1.0
762.0703256098976	0.4499333333333333	5.0548	1.0
762.0709905724362	0.4362	5.0548	1.0
762.0709905724362	0.4214666666666666	4.7376	1.0
762.4150708579367	0.3961333333333333	4.5713333333333335	1.0
762.4150708579367	0.3762666666666666	4.208799999999999	1.0
762.4150708579367	0.36689999999999995	4.123733333333334	1.0
762.7625681577041	0.40409999999999996	4.613733333333333	1.0
762.7625681577041	0.4222333333333333	4.796666666666667	1.0
762.7603129910615	0.41816666666666663	4.7612	1.0
762.7603129910615	0.4236666666666666	4.718	1.0
762.7603129910615	0.4178666666666666	4.789066666666667	1.0
763.9613870519935	0.4178666666666666	4.878666666666667	1.0
763.9613870519935	0.4320666666666666	4.9883999999999995	1.0
763.9617376831504	0.4348	4.9883999999999995	1.0
763.9617376831504	0.4198666666666666	5.044266666666667	1.0
763.9617376831504	0.4381333333333333	5.058000000000001	1.0
763.9657949464872	0.4208999999999999	4.949333333333334	1.0
763.9657949464872	0.41323333333333323	4.865600000000001	1.0
764.3924033071971	0.43383333333333324	4.914533333333333	1.0
764.3924033071971	0.3753666666666666	4.2485333333333335	1.0
764.3924033071971	0.3572666666666666	4.137733333333334	1.0
764.750022171514	0.3625333333333333	4.205866666666667	1.0
764.750022171514	0.4108333333333333	4.764	1.0
765.0040148105246	0.4108333333333333	4.842266666666666	1.0
765.0040148105246	0.4065999999999999	4.744533333333334	1.0
765.0040148105246	0.4098666666666666	4.744533333333334	1.0
765.3511855699643	0.39579999999999993	4.546666666666667	1.0
765.3511855699643	0.4127999999999999	4.7864	1.0
765.5185104557241	0.4076666666666666	4.810133333333333	1.0
765.5185104557241	0.4000666666666666	4.750133333333334	1.0
765.5185104557241	0.3935666666666666	4.614400000000001	1.0
765.9511230342185	0.40266666666666656	4.638	1.0
765.9511230342185	0.4149999999999999	4.874133333333333	1.0
765.9502648372187	0.4167333333333333	4.972133333333333	1.0
765.9502648372187	0.4205999999999999	5.0326666666666675	1.0
765.9502648372187	0.42663333333333325	5.01	1.0
765.9511960074356	0.42663333333333325	5.023866666666666	1.0
765.9511960074356	0.4189666666666666	4.520533333333333	1.0
766.9986636168707	0.37883333333333324	4.520533333333333	1.0
766.9986636168707	0.37343333333333323	4.427333333333334	1.0
766.9986636168707	0.3696999999999999	4.490933333333334	1.0
767.0797433401165	0.43366666666666653	5.256	1.0
767.0797433401165	0.44623333333333315	5.393866666666667	1.0
767.0797433401165	0.38073333333333326	4.561466666666667	1.0
767.0646115153642	0.37709999999999994	4.4573333333333345	1.0
767.0646115153642	0.4326333333333332	5.2164	1.0
767.7800339003029	0.4419333333333333	5.3781333333333325	1.0
767.7800339003029	0.4475999999999999	5.392799999999999	1.0
767.7800339003029	0.4475999999999999	5.398133333333333	1.0
768.2095912312719	0.44203333333333317	5.398133333333333	1.0
768.2095912312719	0.4348	5.400133333333333	1.0
768.6455447340751	0.41216666666666657	5.069866666666667	1.0
768.6455447340751	0.39356666666666656	4.821733333333333	1.0
768.6455447340751	0.3791666666666666	4.644933333333333	1.0
768.9952397307733	0.40283333333333327	4.8373333333333335	1.0
768.9952397307733	0.4160333333333333	5.0920000000000005	1.0
768.9967322987623	0.43126666666666663	5.210666666666666	1.0
768.9967322987623	0.43936666666666657	5.24	1.0
768.9967322987623	0.4302333333333333	5.2438666666666665	1.0
768.9967724318514	0.4302333333333333	5.2081333333333335	1.0
768.9967724318514	0.4188666666666666	4.800533333333334	1.0
770.1375289131569	0.3919666666666666	4.800533333333334	1.0
770.1375289131569	0.38773333333333326	4.705866666666666	1.0
770.1375289131569	0.4430333333333332	5.641466666666667	1.0
770.1364218408165	0.4622666666666667	5.879066666666666	1.0
770.1364218408165	0.4522666666666666	5.558533333333333	1.0
770.5716386588122	0.4322333333333333	5.400266666666666	1.0
770.5716386588122	0.43186666666666657	5.443866666666666	1.0
770.5716386588122	0.4385333333333332	5.434533333333333	1.0
771.2767636415191	0.39523333333333327	4.948666666666666	1.0
771.2767636415191	0.4066999999999999	5.146933333333333	1.0
771.630612649635	0.4066999999999999	5.145066666666667	1.0
771.630612649635	0.4069666666666666	4.8292	1.0
771.630612649635	0.3900666666666666	4.8292	1.0
771.630612649635	0.3745333333333333	4.625733333333334	1.0
771.630612649635	0.3728333333333333	4.700266666666667	1.0
772.0714367182103	0.4178666666666666	5.284	1.0
772.0714367182103	0.42213333333333325	5.4	1.0
772.0714367182103	0.4185333333333333	5.211733333333333	1.0
772.0714367182103	0.3942	4.9370666666666665	1.0
772.0714367182103	0.3699333333333333	4.7012	1.0
773.2165744935611	0.4207333333333333	5.476266666666667	1.0
773.2165744935611	0.44626666666666664	5.7144	1.0
773.2165744935611	0.44626666666666664	5.527733333333333	1.0
773.6588130230869	0.4301666666666666	5.527733333333333	1.0
773.6588130230869	0.41179999999999994	5.230666666666666	1.0
773.9268058694157	0.4573333333333333	5.932533333333333	1.0
773.9268058694157	0.4596	5.999466666666667	1.0
773.9268058694157	0.41939999999999994	5.3617333333333335	1.0
774.3679363245467	0.4223333333333332	5.5367999999999995	1.0
774.3679363245467	0.41066666666666657	5.392266666666667	1.0
766.0537172168149	0.40353333333333324	5.281866666666667	1.0
766.0537172168149	0.3918	5.063466666666667	1.0
766.0537172168149	0.3917666666666666	5.0916	1.0
775.1669257074509	0.3917666666666666	5.293733333333333	1.0
775.1669257074509	0.4025333333333333	5.709200000000001	1.0
775.1669257074509	0.4449666666666666	5.709200000000001	1.0
775.1681769940732	0.4416333333333334	5.684933333333333	1.0
775.1681769940732	0.42333333333333323	5.4764	1.0
775.4354708022846	0.43766666666666654	5.557599999999999	1.0
775.4354708022846	0.4060666666666666	5.2754666666666665	1.0
775.4354708022846	0.4122666666666666	5.212266666666666	1.0
776.3259422531626	0.4578333333333332	5.943066666666666	1.0
776.3259422531626	0.46076666666666666	5.973466666666667	1.0
776.5976719209982	0.44379999999999986	5.8057333333333325	1.0
776.5976719209982	0.42013333333333325	5.403999999999999	1.0
776.5976719209982	0.42013333333333325	5.120666666666666	1.0
777.0420566652639	0.3956666666666666	5.849733333333332	1.0
777.0420566652639	0.44836666666666664	5.849733333333332	1.0
777.0400554854842	0.47936666666666655	6.266533333333333	1.0
777.0400554854842	0.47006666666666663	6.1823999999999995	1.0
777.0400554854842	0.45656666666666657	6.0424	1.0
777.844470048247	0.4503999999999998	5.9524	1.0
777.844470048247	0.43083333333333323	5.473333333333334	1.0
777.844470048247	0.41386666666666655	5.420133333333333	1.0
777.844470048247	0.4206333333333333	5.362933333333333	1.0
777.844470048247	0.4419333333333333	5.732133333333334	1.0
778.290290802685	0.45956666666666657	5.826666666666667	1.0
778.290290802685	0.45956666666666657	5.826933333333333	1.0
778.2904506327706	0.44836666666666664	5.843733333333333	1.0
778.2904506327706	0.44949999999999996	5.843733333333333	1.0
778.2904506327706	0.4376999999999999	5.8332	1.0
778.564085829238	0.44673333333333326	5.704133333333334	1.0
778.564085829238	0.43713333333333326	5.642400000000001	1.0
779.6427034402122	0.43806666666666655	5.6556	1.0
779.6427034402122	0.43799999999999994	5.789066666666666	1.0
779.6427034402122	0.4375666666666666	5.516666666666667	1.0
779.8160261539674	0.4173333333333333	5.302	1.0
779.8160261539674	0.40659999999999996	5.2036	1.0
780.2668109352228	0.4296333333333333	5.374533333333334	1.0
780.2668109352228	0.4296333333333333	5.4825333333333335	1.0
780.2668109352228	0.4370666666666666	5.5014666666666665	1.0
780.9856601984608	0.43389999999999995	5.5014666666666665	1.0
780.9856601984608	0.4496	5.574799999999999	1.0
781.2644021090044	0.42873333333333324	5.350933333333333	1.0
781.2644021090044	0.4321	5.3216	1.0
781.2644021090044	0.43566666666666665	5.506133333333333	1.0
781.3503746817693	0.4774666666666666	5.983733333333333	1.0
781.3503746817693	0.46399999999999997	5.9252	1.0
781.6293832204624	0.46869999999999984	5.897066666666666	1.0
781.6293832204624	0.47693333333333326	6.108266666666666	1.0
781.6293832204624	0.46513333333333323	5.808000000000001	1.0
781.7133585232739	0.46513333333333323	5.56	1.0
781.7133585232739	0.4477333333333333	5.582933333333333	1.0
782.891896816055	0.4402999999999999	5.582933333333333	1.0
782.891896816055	0.4865	5.9752	1.0
782.891896816055	0.4803666666666666	5.8416	1.0
782.9763287158337	0.44639999999999985	5.372399999999999	1.0
782.9763287158337	0.4264333333333333	5.2704	1.0
783.2541286307678	0.44196666666666656	5.363866666666667	1.0
783.2541286307678	0.48896666666666666	6.023466666666667	1.0
783.2541286307678	0.5210666666666666	6.377600000000001	1.0
783.7954137095041	0.501	6.097466666666667	1.0
783.7954137095041	0.501	5.9436	1.0
784.0722878743409	0.4845666666666666	6.2504	1.0
784.0722878743409	0.5083666666666666	6.2504	1.0
784.0722878743409	0.4824666666666666	5.761866666666666	1.0
784.4356787311978	0.4643666666666666	5.4136	1.0
784.4356787311978	0.4546666666666666	5.479466666666667	1.0
784.5261014277586	0.5245666666666666	6.220666666666667	1.0
784.5261014277586	0.5432999999999999	6.516933333333332	1.0
784.5261014277586	0.5159333333333332	6.207066666666666	1.0
784.8013636250521	0.5381333333333334	6.404800000000001	1.0
784.8013636250521	0.5418333333333332	6.379733333333334	1.0
784.8013636250521	0.5044999999999998	5.947333333333333	1.0
784.8932117899021	0.5044999999999998	5.719733333333334	1.0
784.8932117899021	0.4826333333333332	5.719733333333334	1.0
784.9781806817889	0.4869	5.719733333333334	1.0
784.9781806817889	0.48103333333333326	5.6015999999999995	1.0
784.9781806817889	0.5329666666666666	6.168266666666667	1.0
786.0746803477326	0.5458000000000001	6.240933333333333	1.0
786.0746803477326	0.5439333333333333	6.2459999999999996	1.0
786.4422220108386	0.5468999999999998	6.1696	1.0
786.4422220108386	0.5148333333333333	5.749066666666667	1.0
786.4422220108386	0.5074333333333332	5.760266666666666	1.0
786.4422043000565	0.5379999999999999	5.889066666666666	1.0
786.4422043000565	0.5794999999999999	6.420000000000001	1.0
787.6347471610829	0.5794999999999999	5.8404	1.0
787.6347471610829	0.5511333333333333	5.706266666666666	1.0
787.6347471610829	0.5272	5.706266666666666	1.0
787.6382903921149	0.5431999999999999	5.631199999999999	1.0
787.6382903921149	0.5570333333333332	5.9799999999999995	1.0
787.9169858144066	0.5787666666666667	6.185066666666667	1.0
787.9169858144066	0.5929666666666666	6.309066666666666	1.0
787.9169858144066	0.5895999999999999	6.247866666666666	1.0
788.0031438197825	0.5964666666666667	6.138666666666667	1.0
788.0031438197825	0.5751666666666666	6.002933333333333	1.0
788.0031438197825	0.5422	5.717066666666667	1.0
788.0031438197825	0.5422	5.681066666666666	1.0
788.0031438197825	0.5469999999999999	5.730666666666667	1.0
789.2892239190038	0.5554999999999999	5.730666666666667	1.0
789.2892239190038	0.6376333333333332	6.0944	1.0
789.2908139667111	0.6375666666666666	6.011066666666666	1.0
789.2908139667111	0.6363333333333333	5.9852	1.0
789.2908139667111	0.6772666666666666	6.204666666666667	1.0
789.6621197397028	0.7383333333333333	6.7872	1.0
789.6621197397028	0.7589666666666667	6.8016	1.0
787.5946394811406	0.5650333333333332	6.021333333333333	1.0
787.6367646834093	0.5337999999999999	5.561466666666666	1.0
787.6367646834093	0.5193999999999999	5.485333333333334	1.0
787.6367646834093	0.5185333333333332	5.645599999999999	1.0
786.4421558292742	0.5284333333333332	5.819333333333333	1.0
786.4421558292742	0.49809999999999993	5.484933333333333	1.0
786.4412215194317	0.49809999999999993	5.494133333333334	1.0
786.4412215194317	0.4976999999999998	5.948	1.0
786.4412215194317	0.5238333333333333	5.948	1.0
786.077129919032	0.5421999999999999	6.391466666666668	1.0
786.077129919032	0.5676333333333332	6.4005333333333345	1.0
784.8931482937961	0.5516666666666666	6.395600000000001	1.0
784.8931482937961	0.5139333333333332	6.007599999999999	1.0
784.8931482937961	0.48119999999999996	5.8044	1.0
784.8935528920857	0.5022666666666666	5.9581333333333335	1.0
784.8935528920857	0.5006333333333334	6.034533333333334	1.0
784.8028721559957	0.5013	6.126266666666667	1.0
784.8028721559957	0.5346333333333333	6.452000000000001	1.0
784.8028721559957	0.5346333333333333	6.308933333333333	1.0
784.5252779788974	0.5190666666666666	6.093866666666666	1.0
784.5252779788974	0.5121999999999999	6.093866666666666	1.0
784.4380406073091	0.5038666666666666	6.0816	1.0
784.4380406073091	0.4772333333333332	5.659999999999999	1.0
784.4380406073091	0.4696333333333333	5.558666666666666	1.0
784.4380406073091	0.4972666666666665	5.905333333333333	1.0
784.4380406073091	0.5136999999999998	6.276666666666666	1.0
783.3425891629433	0.4823666666666666	5.620266666666665	1.0
783.3425891629433	0.5028999999999999	6.2081333333333335	1.0
783.3425891629433	0.47856666666666664	5.843733333333333	1.0
782.9786880118763	0.46606666666666663	5.628666666666667	1.0
782.9786880118763	0.48453333333333326	6.095466666666666	1.0
782.9786880118763	0.48453333333333326	6.307600000000001	1.0
782.8927142053684	0.5087999999999999	6.307600000000001	1.0
782.8927142053684	0.5179999999999999	6.427733333333334	1.0
781.7112133839544	0.47603333333333314	5.9772	1.0
781.7112133839544	0.4675333333333333	5.9446666666666665	1.0
781.7112133839544	0.4851999999999999	5.982666666666668	1.0
781.7111136031884	0.49629999999999996	5.9967999999999995	1.0
781.7111136031884	0.4748666666666667	5.959866666666666	1.0
781.5369574332336	0.46819999999999995	5.817333333333334	1.0
781.5369574332336	0.45659999999999995	5.849866666666667	1.0
781.5369574332336	0.45893333333333325	5.741333333333333	1.0
781.352975604324	0.4349666666666665	5.4374666666666664	1.0
781.352975604324	0.4349666666666665	5.344266666666667	1.0
780.9887934224596	0.4228666666666666	5.344266666666667	1.0
780.9887934224596	0.4334333333333332	5.393599999999999	1.0
780.9887934224596	0.4570666666666667	5.826533333333334	1.0
780.6263566239763	0.46046666666666664	5.722133333333333	1.0
780.6263566239763	0.4365333333333333	5.523066666666667	1.0
780.1798858413787	0.44356666666666666	5.6868	1.0
780.1798858413787	0.42883333333333323	5.563866666666666	1.0
780.1798858413787	0.44866666666666666	5.9181333333333335	1.0
779.8177540524396	0.4781	6.107733333333334	1.0
779.8177540524396	0.4716333333333333	6.249866666666667	1.0
778.5642680753693	0.44189999999999996	5.596666666666666	1.0
778.5642680753693	0.44189999999999996	5.921200000000001	1.0
778.5642680753693	0.4458666666666665	6.0898666666666665	1.0
778.5627820743031	0.4646999999999999	6.0898666666666665	1.0
778.5627820743031	0.46606666666666663	6.004266666666667	1.0
778.2888155746905	0.4474999999999999	5.747866666666667	1.0
778.2888155746905	0.4600999999999999	6.030399999999999	1.0
778.2888155746905	0.4675333333333333	6.046399999999999	1.0
778.2022334597764	0.44439999999999996	5.698799999999999	1.0
778.2022334597764	0.41406666666666664	5.348933333333333	1.0
778.7085656545668	0.44323333333333326	5.5448	1.0
778.7085656545668	0.4233666666666666	5.4807999999999995	1.0
778.7085656545668	0.4212666666666666	5.263333333333334	1.0
777.3963058010976	0.4212666666666666	5.2212000000000005	1.0
777.3963058010976	0.4035666666666666	5.2212000000000005	1.0
777.0424010326839	0.40116666666666656	5.157466666666667	1.0
777.0424010326839	0.4001999999999999	5.1433333333333335	1.0
777.0424010326839	0.4202999999999999	5.280533333333333	1.0
776.6781747167132	0.44603333333333334	5.7208000000000006	1.0
776.6781747167132	0.44666666666666655	5.762266666666667	1.0
776.6781747167132	0.4271999999999999	5.4403999999999995	1.0
776.6781747167132	0.3983666666666666	5.090666666666667	1.0
776.6781747167132	0.4298333333333333	5.5465333333333335	1.0
775.4350642265829	0.4538	5.893999999999999	1.0
775.4350642265829	0.4538	5.9156	1.0
775.1661414119261	0.4496666666666666	5.595999999999999	1.0
775.1661414119261	0.43406666666666655	5.595999999999999	1.0
775.1661414119261	0.42806666666666665	5.483600000000001	1.0
775.1661414119261	0.4166666666666666	5.3732	1.0
775.1661414119261	0.3866333333333333	5.005866666666667	1.0
775.0800085572192	0.3741666666666666	4.853733333333333	1.0
775.0800085572192	0.3812666666666666	4.887466666666667	1.0
775.0800085572192	0.4118333333333333	5.387466666666667	1.0
774.7262676638283	0.4421666666666666	5.7114666666666665	1.0
774.7262676638283	0.41166666666666657	5.292799999999999	1.0
774.0123272998005	0.4047666666666666	5.170933333333333	1.0
774.0123272998005	0.4047666666666666	4.961066666666667	1.0
774.0123272998005	0.38753333333333323	4.9403999999999995	1.0
773.5725958386906	0.3949666666666666	4.9403999999999995	1.0
773.5725958386906	0.3871666666666666	5.0508	1.0
773.2187121748279	0.41109999999999997	5.362266666666667	1.0
773.2187121748279	0.3945333333333333	5.156133333333334	1.0
773.2187121748279	0.38623333333333326	4.876933333333333	1.0
772.4231908297658	0.41643333333333327	5.239866666666667	1.0
772.4231908297658	0.4222333333333333	5.347066666666667	1.0
772.0689446943207	0.3892666666666666	4.997866666666666	1.0
772.0689446943207	0.37823333333333325	4.76	1.0
772.0689446943207	0.37499999999999994	4.688800000000001	1.0
771.9862940719225	0.37499999999999994	4.722533333333334	1.0
771.9862940719225	0.3633666666666666	4.890533333333333	1.0
771.9862940719225	0.39093333333333324	4.890533333333333	1.0
771.629110840774	0.4116666666666666	5.222266666666666	1.0
771.629110840774	0.40129999999999993	5.0772	1.0
771.2786346319614	0.3882999999999999	4.935466666666667	1.0
771.2786346319614	0.38543333333333324	4.9224	1.0
771.2786346319614	0.3853999999999999	4.825066666666666	1.0
770.7541991128544	0.4066333333333333	5.0894666666666675	1.0
770.7541991128544	0.40306666666666663	4.964666666666667	1.0
770.2185336562201	0.3877666666666666	4.878533333333333	1.0
770.2185336562201	0.3881666666666666	4.864533333333333	1.0
770.2185336562201	0.3881666666666666	4.839733333333333	1.0
770.2185336562201	0.39149999999999996	5.178800000000001	1.0
770.2185336562201	0.42783333333333323	5.178800000000001	1.0
768.998419406353	0.43616666666666665	5.4192	1.0
768.998419406353	0.4118666666666666	5.069333333333333	1.0
768.998419406353	0.3723333333333333	4.599200000000001	1.0
768.9965543562308	0.36469999999999997	4.523066666666666	1.0
768.9965543562308	0.3827999999999999	4.669200000000001	1.0
768.829912555229	0.39933333333333326	4.8675999999999995	1.0
768.829912555229	0.40819999999999995	5.166133333333334	1.0
768.829912555229	0.4245666666666666	5.155466666666667	1.0
768.2134013594011	0.39959999999999996	4.918266666666667	1.0
768.2134013594011	0.39959999999999996	4.8708	1.0
768.1281605965393	0.4029	4.8708	1.0
768.1281605965393	0.39933333333333326	4.9112	1.0
768.1281605965393	0.39929999999999993	4.7994666666666665	1.0
767.7775236780304	0.3786999999999999	4.5890666666666675	1.0
767.7775236780304	0.3722	4.543733333333334	1.0
767.7775236780304	0.40943333333333326	4.858266666666666	1.0
767.7775236780304	0.3974333333333333	4.8911999999999995	1.0
767.7775236780304	0.40219999999999995	4.7584	1.0
766.9951381326117	0.4028666666666666	4.752000000000001	1.0
766.9951381326117	0.40786666666666654	4.846266666666667	1.0
765.9510172269751	0.40786666666666654	4.613466666666667	1.0
765.9510172269751	0.4039	4.523066666666666	1.0
765.9510172269751	0.38033333333333325	4.523066666666666	1.0
765.9502501196667	0.3815333333333333	4.451733333333334	1.0
765.9502501196667	0.3780333333333333	4.4446666666666665	1.0
765.8668609548129	0.3732999999999999	4.3824	1.0
765.8668609548129	0.37526666666666664	4.393333333333334	1.0
765.8668609548129	0.424	4.913466666666666	1.0
765.519178387364	0.4380666666666666	5.2068	1.0
765.519178387364	0.3940333333333333	4.688266666666666	1.0
765.0022368440058	0.41139999999999993	4.636133333333333	1.0
765.0022368440058	0.39159999999999995	4.551733333333333	1.0
765.0022368440058	0.39159999999999995	4.9972	1.0
764.9083908761016	0.41943333333333327	4.9636	1.0
764.9083908761016	0.4337666666666666	4.9636	1.0
764.39398496132	0.4091333333333333	4.798533333333333	1.0
764.39398496132	0.4152666666666666	4.800666666666666	1.0
764.39398496132	0.4070333333333333	4.760533333333334	1.0
763.9669127307106	0.4055999999999999	4.618933333333333	1.0
763.9669127307106	0.3802666666666666	4.440933333333334	1.0
763.9669127307106	0.38386666666666663	4.444400000000001	1.0
763.9669127307106	0.38299999999999995	4.4028	1.0
763.9669127307106	0.37259999999999993	4.366800000000001	1.0
763.1897276889131	0.39799999999999996	4.545866666666667	1.0
763.1897276889131	0.39799999999999996	4.430666666666667	1.0
763.1897276889131	0.3782666666666666	4.430666666666667	1.0
762.8432106597672	0.3601	4.043733333333333	1.0
762.8432106597672	0.3587666666666666	4.0276000000000005	1.0
762.7620098151366	0.40829999999999994	4.5932	1.0
762.7620098151366	0.40233333333333327	4.607066666666666	1.0
762.7620098151366	0.37103333333333327	4.123733333333335	1.0
762.1525528927575	0.3600333333333333	4.0776	1.0
762.1525528927575	0.3544666666666666	3.8854666666666664	1.0
762.1534093914108	0.3598666666666666	3.881466666666667	1.0
762.1534093914108	0.35926666666666657	4.0676	1.0
762.1534093914108	0.35926666666666657	4.412000000000001	1.0
762.070119140153	0.3999666666666666	4.4173333333333344	1.0
762.070119140153	0.4026999999999999	4.4173333333333344	1.0
762.0709475355861	0.3913666666666666	4.372666666666667	1.0
762.0709475355861	0.40529999999999994	4.420800000000001	1.0
762.0709475355861	0.39709999999999995	4.346800000000001	1.0
758.4359449230584	0.3982333333333333	4.3016	1.0
758.4359449230584	0.4133666666666666	4.3136	1.0
758.0530639753972	0.3998333333333333	4.306666666666667	1.0
758.0530639753972	0.40093333333333325	4.248933333333333	1.0
758.0530639753972	0.41319999999999996	4.2867999999999995	1.0
757.5523337753398	0.39603333333333324	4.168533333333333	1.0
757.5523337753398	0.39603333333333324	4.037066666666667	1.0
757.2112174234561	0.38339999999999996	3.9742666666666664	1.0
757.2112174234561	0.3727333333333333	3.9742666666666664	1.0
757.2112174234561	0.3976333333333333	4.146266666666667	1.0
757.2104875507596	0.41426666666666656	4.480133333333333	1.0
757.2104875507596	0.43326666666666663	4.5144	1.0
756.9555738922243	0.42856666666666665	4.540666666666666	1.0
756.9555738922243	0.41786666666666655	4.4952	1.0
756.9555738922243	0.4105999999999999	4.306933333333334	1.0
756.873596210584	0.36523333333333324	3.8428000000000004	1.0
756.873596210584	0.40853333333333325	4.1948	1.0
756.5315032525267	0.43353333333333316	4.551733333333333	1.0
756.5315032525267	0.43353333333333316	4.4012	1.0
756.5315032525267	0.4225999999999999	4.4012	1.0
756.1110468690079	0.4188999999999999	4.328	1.0
756.1110468690079	0.4044999999999999	4.204	1.0
756.1110468690079	0.4077333333333333	4.236933333333333	1.0
756.1485848110032	0.40099999999999997	4.2248	1.0
756.1485848110032	0.41326666666666656	4.2077333333333335	1.0
756.1485848110032	0.40896666666666665	4.208	1.0
756.1485848110032	0.4021333333333333	4.136933333333334	1.0
756.1485848110032	0.4215666666666666	4.335333333333335	1.0
754.2427621176574	0.40096666666666664	4.1352	1.0
754.2427621176574	0.40096666666666664	3.9319999999999995	1.0
754.259656587114	0.3936666666666666	4.155600000000001	1.0
754.259656587114	0.40763333333333324	4.155600000000001	1.0
754.259656587114	0.4354	4.304133333333334	1.0
753.9202296347116	0.4527333333333333	4.5708	1.0
753.9202296347116	0.41806666666666664	4.1588	1.0
753.5832564439195	0.39326666666666665	3.9352	1.0
753.5832564439195	0.4529999999999999	4.530133333333334	1.0
753.5832564439195	0.4470666666666666	4.555466666666667	1.0
753.501913763858	0.44059999999999994	4.343466666666666	1.0
753.501913763858	0.4473999999999999	4.3874666666666675	1.0
753.165927076784	0.45099999999999985	4.360666666666668	1.0
753.165927076784	0.45099999999999985	4.3310666666666675	1.0
753.165927076784	0.4333666666666666	3.987733333333333	1.0
752.8295615936822	0.41093333333333326	3.987733333333333	1.0
752.8295615936822	0.42226666666666657	4.0296	1.0
752.078512860362	0.4227666666666666	4.164266666666667	1.0
752.078512860362	0.4269	4.0692	1.0
752.078512860362	0.4208666666666666	4.0906666666666665	1.0
752.0757358084896	0.41469999999999996	3.881466666666667	1.0
752.0757358084896	0.4186666666666666	4.136933333333333	1.0
751.3270054762622	0.47029999999999994	4.572800000000001	1.0
751.3270054762622	0.46063333333333334	4.519333333333332	1.0
751.3270054762622	0.47086666666666666	4.381333333333334	1.0
750.9937714196791	0.47086666666666666	4.140533333333333	1.0
750.9937714196791	0.44413333333333327	3.899066666666666	1.0
750.912852073412	0.4198666666666666	3.899066666666666	1.0
750.912852073412	0.43993333333333323	4.122666666666667	1.0
750.912852073412	0.44309999999999994	4.204666666666667	1.0
750.912852073412	0.45069999999999993	4.259733333333333	1.0
750.912852073412	0.43963333333333326	4.1272	1.0
750.2421370918217	0.43843333333333323	4.196	1.0
750.2421370918217	0.4435333333333332	4.198133333333334	1.0
750.2421370918217	0.44139999999999996	4.160533333333333	1.0
