wavelength(nm)	flourescence PMT(V)	ti_saph Power (V)	Gain (V)
750.2469347666929	0.4329666666666666	4.0170666666666675	1.0
750.2469347666929	0.44769999999999993	4.1812	1.0
750.9933092830319	0.4647666666666666	4.380133333333334	1.0
750.9933092830319	0.4704333333333332	4.2729333333333335	1.0
750.9933092830319	0.43743333333333323	4.203199999999999	1.0
750.9933092830319	0.4646333333333333	4.282933333333333	1.0
750.9933092830319	0.4646333333333333	4.3234666666666675	1.0
751.3287316031449	0.45139999999999986	4.3234666666666675	1.0
751.3287316031449	0.4571333333333333	4.2401333333333335	1.0
751.3287429523454	0.4475	4.236533333333333	1.0
751.3287429523454	0.4469999999999999	4.2128	1.0
751.3287429523454	0.4427	4.2652	1.0
751.7426767113697	0.4348666666666666	4.165066666666666	1.0
751.7426767113697	0.4205999999999999	3.957733333333333	1.0
752.0787407537434	0.41469999999999996	3.9368	1.0
752.0787407537434	0.433	4.1681333333333335	1.0
752.0690021627682	0.45326666666666654	4.447733333333333	1.0
752.0690021627682	0.45326666666666654	4.250533333333333	1.0
752.0690021627682	0.42776666666666663	4.188933333333333	1.0
753.1675408329933	0.4346999999999999	4.188933333333333	1.0
753.1675408329933	0.4179999999999999	4.128533333333333	1.0
753.1691789195921	0.42039999999999994	4.108133333333334	1.0
753.1691789195921	0.4167666666666666	4.052933333333334	1.0
753.1691789195921	0.44173333333333326	4.315733333333333	1.0
753.5029838214055	0.4256999999999999	4.301866666666667	1.0
753.5029838214055	0.43856666666666666	4.257333333333333	1.0
753.9197354115782	0.40783333333333327	4.087466666666668	1.0
753.9197354115782	0.43399999999999994	4.442533333333334	1.0
754.0057371605736	0.4370666666666666	4.360933333333334	1.0
754.0057371605736	0.4370666666666666	4.171866666666666	1.0
754.0057371605736	0.41539999999999994	3.9729333333333336	1.0
754.257790550173	0.4026666666666666	3.9729333333333336	1.0
754.257790550173	0.39296666666666663	3.978266666666667	1.0
755.0155226170058	0.41653333333333326	4.1344	1.0
755.0155226170058	0.40316666666666656	3.968399999999999	1.0
755.3511281709596	0.41123333333333323	4.166666666666667	1.0
755.3511281709596	0.4280999999999999	4.2232	1.0
755.3511281709596	0.41856666666666664	4.252533333333332	1.0
755.7746498876335	0.42829999999999996	4.3532	1.0
755.7746498876335	0.4015666666666666	4.135066666666668	1.0
756.1952651092721	0.3915666666666666	4.023866666666667	1.0
756.1952651092721	0.3915666666666666	4.014266666666667	1.0
756.5311766123799	0.3908666666666666	4.215466666666666	1.0
756.5311766123799	0.4098666666666666	4.215466666666666	1.0
756.5311766123799	0.4122999999999999	4.181466666666667	1.0
756.5321212697838	0.4053333333333333	4.136933333333333	1.0
756.5321212697838	0.39133333333333326	4.073866666666667	1.0
756.9924346820364	0.37899999999999995	3.9926666666666666	1.0
756.9924346820364	0.39666666666666656	4.075733333333333	1.0
757.1308633329808	0.4171999999999999	4.344266666666667	1.0
757.1308633329808	0.42016666666666663	4.4308000000000005	1.0
757.1308633329808	0.4191666666666666	4.428933333333334	1.0
757.1310434112803	0.4233	4.418000000000001	1.0
757.1310434112803	0.4233	4.236666666666666	1.0
757.212980100764	0.4052333333333333	4.236666666666666	1.0
757.212980100764	0.39796666666666664	4.071866666666667	1.0
757.2931345387085	0.39046666666666663	4.031066666666667	1.0
757.2931345387085	0.3818333333333333	3.9560000000000004	1.0
757.2931345387085	0.3936333333333332	4.004666666666667	1.0
757.5502790769899	0.4182333333333333	4.401466666666667	1.0
757.5502790769899	0.4272999999999999	4.4996	1.0
757.5510392234953	0.4233666666666666	4.479733333333334	1.0
757.5510392234953	0.43599999999999994	4.606	1.0
757.5510392234953	0.4270666666666667	4.560533333333333	1.0
757.5510392234953	0.4270666666666667	4.775733333333333	1.0
757.5510392234953	0.43946666666666656	4.835733333333334	1.0
757.5510392234953	0.4391666666666666	4.835733333333334	1.0
757.5510392234953	0.44056666666666655	4.831733333333333	1.0
762.0727644280404	0.4322333333333332	4.885066666666667	1.0
762.0727644280404	0.42556666666666665	4.757733333333334	1.0
762.0727644280404	0.4395666666666666	4.8340000000000005	1.0
762.0736167679031	0.41216666666666657	4.640133333333333	1.0
762.0736167679031	0.40819999999999995	4.4952	1.0
762.4168012060217	0.38896666666666657	4.394533333333333	1.0
762.4168012060217	0.3724999999999999	4.161066666666668	1.0
762.7641085691961	0.37466666666666665	4.1616	1.0
762.7641085691961	0.37466666666666665	4.566666666666666	1.0
762.7641085691961	0.3997999999999999	4.758666666666667	1.0
762.8450299931453	0.4182666666666666	4.758666666666667	1.0
762.8450299931453	0.4118666666666666	4.6630666666666665	1.0
764.3182674496844	0.4057666666666666	4.641733333333334	1.0
764.3182674496844	0.41973333333333324	4.760133333333333	1.0
763.9671822232017	0.4214333333333333	4.862666666666667	1.0
763.9671822232017	0.4348333333333333	4.923733333333333	1.0
763.9671822232017	0.4277999999999999	4.999466666666667	1.0
763.9639458701746	0.4366	5.015866666666666	1.0
763.9639458701746	0.43073333333333325	4.911066666666667	1.0
764.0475230610994	0.4310999999999999	4.917466666666666	1.0
764.0475230610994	0.4310999999999999	4.9112	1.0
764.394234134361	0.4249666666666666	4.9112	1.0
764.394234134361	0.38989999999999997	4.447866666666667	1.0
764.394234134361	0.38859999999999995	4.380666666666667	1.0
764.9165257956471	0.43946666666666656	5.0864	1.0
764.9165257956471	0.42913333333333326	5.009466666666667	1.0
764.9132627013253	0.42063333333333325	4.9836	1.0
764.9132627013253	0.4296333333333333	4.9497333333333335	1.0
765.4369272102009	0.39373333333333327	4.5824	1.0
765.4369272102009	0.39706666666666657	4.663333333333333	1.0
765.4369272102009	0.4096999999999999	4.7077333333333335	1.0
765.517406570834	0.4096999999999999	4.586666666666667	1.0
765.517406570834	0.4019666666666666	4.6	1.0
765.867247254651	0.39643333333333325	4.6	1.0
765.867247254651	0.39156666666666656	4.484400000000001	1.0
765.9503289432404	0.4173666666666666	4.895066666666667	1.0
765.9503289432404	0.4218333333333333	5.044266666666667	1.0
765.9503289432404	0.4348	5.067066666666666	1.0
765.950380848691	0.43129999999999996	5.1056	1.0
765.950380848691	0.4298666666666666	5.084666666666667	1.0
766.9973392347538	0.4125333333333333	4.895866666666667	1.0
766.9973392347538	0.4201	5.0149333333333335	1.0
767.0820872377411	0.4478333333333332	5.378933333333333	1.0
767.0820872377411	0.4478333333333332	5.4764	1.0
767.0820872377411	0.45196666666666657	5.5076	1.0
767.5122423318142	0.4656666666666665	5.5076	1.0
767.5122423318142	0.41403333333333325	5.1132	1.0
767.7800221955422	0.44359999999999994	5.412800000000001	1.0
767.7800221955422	0.45353333333333334	5.4639999999999995	1.0
767.7800221955422	0.4298999999999999	5.351733333333334	1.0
767.7800221955422	0.3920333333333333	4.755733333333334	1.0
767.7800221955422	0.3823666666666666	4.672266666666667	1.0
768.5639790226558	0.4054666666666666	4.919866666666667	1.0
768.5639790226558	0.39873333333333333	4.8435999999999995	1.0
768.5639790226558	0.40243333333333325	4.8621333333333325	1.0
768.5639790226558	0.40243333333333325	4.827466666666667	1.0
768.5639790226558	0.40563333333333323	4.827466666666667	1.0
768.5639790226558	0.38866666666666666	4.6944	1.0
768.5639790226558	0.4054333333333333	4.893066666666667	1.0
768.9977005067594	0.42469999999999997	5.2092	1.0
768.9977005067594	0.4171333333333333	5.0116000000000005	1.0
769.2622066662999	0.4309333333333332	5.239733333333334	1.0
769.2622066662999	0.43383333333333324	5.221466666666667	1.0
769.2622066662999	0.44306666666666655	5.501199999999999	1.0
769.2622066662999	0.46619999999999995	5.857733333333333	1.0
769.2622066662999	0.4360333333333333	5.6066666666666665	1.0
770.4042890120857	0.4360333333333333	5.391866666666666	1.0
770.4042890120857	0.4340999999999999	5.316933333333333	1.0
770.8419478283718	0.42533333333333323	5.316933333333333	1.0
770.8419478283718	0.43629999999999997	5.4097333333333335	1.0
771.2788630737587	0.4346999999999999	5.364666666666667	1.0
771.2788630737587	0.4086666666666666	5.065066666666667	1.0
771.2788630737587	0.4198333333333333	5.298533333333333	1.0
771.7177972373413	0.39309999999999995	4.940533333333333	1.0
771.7177972373413	0.3869333333333333	4.75	1.0
771.9865250312566	0.3941333333333333	4.885466666666666	1.0
771.9865250312566	0.40503333333333325	5.153333333333333	1.0
772.0702138281647	0.42869999999999997	5.3156	1.0
772.0702138281647	0.42869999999999997	5.353466666666667	1.0
772.0702138281647	0.4364333333333333	5.3612	1.0
772.3401682881507	0.43089999999999995	5.3612	1.0
772.3401682881507	0.40369999999999995	5.080266666666668	1.0
773.2188575653746	0.4091999999999999	5.0904	1.0
773.2188575653746	0.4508333333333333	5.7867999999999995	1.0
773.2204260458824	0.45269999999999994	5.876666666666667	1.0
773.2204260458824	0.4449999999999998	5.725066666666667	1.0
773.2204260458824	0.3976333333333333	4.889333333333333	1.0
773.9303973972419	0.3872666666666666	5.000266666666667	1.0
773.9303973972419	0.4575	6.003866666666667	1.0
774.4065267106046	0.4580666666666666	5.8267999999999995	1.0
774.4065267106046	0.4580666666666666	5.421333333333333	1.0
774.7279605325856	0.4229666666666666	5.421333333333333	1.0
774.7279605325856	0.4187666666666667	5.4128	1.0
774.7279605325856	0.3967666666666666	5.170533333333333	1.0
775.0824709247511	0.40376666666666655	5.1132	1.0
775.0824709247511	0.40319999999999995	5.160266666666667	1.0
775.0834022280538	0.4097333333333332	5.377733333333333	1.0
775.0834022280538	0.43456666666666666	5.5036000000000005	1.0
775.0834022280538	0.4442666666666666	5.679199999999999	1.0
775.1677331107044	0.4369333333333333	5.618399999999999	1.0
775.1677331107044	0.42823333333333324	5.5313333333333325	1.0
775.4383820855078	0.42823333333333324	5.476533333333334	1.0
775.4383820855078	0.4310999999999999	5.476266666666667	1.0
775.153513579057	0.42356666666666665	5.476266666666667	1.0
775.153513579057	0.4018	5.162666666666667	1.0
775.153513579057	0.45609999999999995	5.907866666666665	1.0
776.6818928703885	0.45263333333333333	5.8544	1.0
776.6818928703885	0.4184999999999999	5.355333333333333	1.0
776.6834858008183	0.3956666666666666	5.081733333333334	1.0
776.6834858008183	0.40069999999999995	5.146266666666667	1.0
777.0403881440333	0.44649999999999995	5.851333333333334	1.0
777.0403881440333	0.46716666666666656	6.0712	1.0
777.0403881440333	0.4594666666666666	5.8888	1.0
777.7607332199849	0.4594666666666666	5.9913333333333325	1.0
777.7607332199849	0.469	5.9585333333333335	1.0
777.9342415571871	0.4628333333333332	5.9585333333333335	1.0
777.9342415571871	0.44899999999999995	5.610799999999999	1.0
778.2021931938023	0.4323333333333333	5.464533333333333	1.0
778.2021931938023	0.44556666666666656	5.816933333333333	1.0
778.2021931938023	0.4487333333333334	5.813733333333333	1.0
778.2905286430888	0.44266666666666654	5.814666666666667	1.0
778.2905286430888	0.4579999999999999	5.836666666666667	1.0
778.5624330464826	0.44349999999999984	5.726933333333333	1.0
778.5624330464826	0.44293333333333335	5.717066666666667	1.0
778.5661521209909	0.4594	5.734533333333334	1.0
778.5661521209909	0.4594	5.4909333333333326	1.0
778.5661521209909	0.4174666666666666	5.779733333333334	1.0
778.5661521209909	0.4526666666666665	5.779733333333334	1.0
778.5661521209909	0.4451333333333332	5.739333333333334	1.0
779.9660873007695	0.42883333333333323	5.390133333333333	1.0
779.9660873007695	0.4423333333333333	5.597466666666667	1.0
780.6270878532749	0.47583333333333333	6.082666666666667	1.0
780.6270878532749	0.4747333333333333	5.968133333333333	1.0
780.6270878532749	0.49806666666666655	6.280133333333334	1.0
780.9894230142055	0.47346666666666665	5.914666666666666	1.0
780.9894230142055	0.44646666666666657	5.505733333333334	1.0
781.3522483374542	0.44646666666666657	6.0992	1.0
781.3522483374542	0.49083333333333334	6.400800000000001	1.0
781.3522547416256	0.5138666666666666	6.400800000000001	1.0
781.3522547416256	0.49839999999999984	6.184933333333333	1.0
781.3522547416256	0.48663333333333325	6.035333333333333	1.0
781.6278200183339	0.4994333333333333	6.134533333333334	1.0
781.6278200183339	0.4767333333333333	5.914666666666666	1.0
781.7154295793192	0.44393333333333324	5.549733333333332	1.0
781.7154295793192	0.4768333333333333	5.867333333333333	1.0
782.8918638183828	0.48816666666666664	6.028666666666666	1.0
782.8918638183828	0.4742999999999999	5.857333333333333	1.0
782.8918638183828	0.4577666666666666	5.497733333333334	1.0
783.1694632819957	0.4577666666666666	5.458799999999999	1.0
783.1694632819957	0.4552666666666666	5.705466666666666	1.0
783.3443976237342	0.4746333333333333	5.705466666666666	1.0
783.3443976237342	0.5082	6.144266666666666	1.0
784.0730636535498	0.4964333333333333	5.9816	1.0
784.0730636535498	0.5079666666666666	6.139733333333334	1.0
784.0730636535498	0.5157333333333333	6.170266666666667	1.0
784.4402551718462	0.4618333333333332	5.4636	1.0
784.4402551718462	0.49953333333333316	5.8777333333333335	1.0
784.5247269154361	0.5394333333333333	6.430533333333335	1.0
784.5247269154361	0.5269999999999999	6.421466666666667	1.0
784.7170132793042	0.5235333333333333	6.1136	1.0
784.7170132793042	0.5235333333333333	6.277733333333333	1.0
784.7170132793042	0.5422666666666667	6.400266666666668	1.0
784.8061858918202	0.5549999999999999	6.400266666666668	1.0
784.8061858918202	0.5256	6.104400000000001	1.0
784.8929946148957	0.49149999999999994	5.773333333333333	1.0
784.8929946148957	0.48369999999999985	5.659066666666666	1.0
786.076024072814	0.5110666666666667	5.799066666666666	1.0
786.076024072814	0.5485666666666666	6.203333333333333	1.0
786.076024072814	0.5378999999999999	6.122533333333333	1.0
786.077877553108	0.5350666666666666	6.047066666666666	1.0
786.077877553108	0.5357333333333333	5.948266666666667	1.0
786.4443874366325	0.5357333333333333	5.952800000000001	1.0
786.4443874366325	0.5390333333333333	6.257866666666667	1.0
787.1776377856567	0.5521	6.257866666666667	1.0
787.1776377856567	0.5635333333333333	6.387333333333334	1.0
787.1776377856567	0.6365666666666666	6.801200000000001	1.0
787.5479560557045	0.6055333333333333	6.5738666666666665	1.0
787.5479560557045	0.5498999999999999	5.8128	1.0
787.5479560557045	0.5480999999999999	5.887066666666667	1.0
787.5479560557045	0.5534333333333332	5.895199999999999	1.0
787.6367651426706	0.5533	5.888133333333332	1.0
787.6367651426706	0.5850666666666666	6.188000000000001	1.0
787.6367651426706	0.6247333333333333	6.578933333333334	1.0
787.9210852801962	0.6247333333333333	6.6659999999999995	1.0
787.9210852801962	0.6421999999999999	6.6659999999999995	1.0
788.0043096592395	0.5925666666666666	6.0932	1.0
788.0043096592395	0.5775333333333332	6.0024	1.0
788.0952015538039	0.5487	5.787733333333334	1.0
788.0952015538039	0.5375666666666666	5.578133333333332	1.0
788.0952015538039	0.5451666666666666	5.558533333333332	1.0
788.3726634006645	0.5496333333333333	5.557733333333332	1.0
788.3726634006645	0.6426333333333332	6.176933333333333	1.0
789.4844881033188	0.6363	5.990933333333333	1.0
789.4844881033188	0.6746333333333333	6.193999999999999	1.0
789.6631088711873	0.6746333333333333	6.267466666666666	1.0
789.6631088711873	0.6915	6.621466666666667	1.0
789.6631088711873	0.7235666666666667	6.621466666666667	1.0
789.4876816744369	0.8462333333333334	6.040266666666667	1.0
789.4876816744369	0.6846666666666666	6.261066666666666	1.0
789.2919048458434	0.6677	6.242533333333333	1.0
789.2919048458434	0.6416333333333333	6.0656	1.0
788.0956167515486	0.5653333333333332	5.721733333333333	1.0
788.0956167515486	0.5601333333333333	5.725733333333334	1.0
788.0927793330355	0.5595333333333333	5.662933333333333	1.0
788.0927793330355	0.5735333333333332	5.8664	1.0
788.0927793330355	0.6002	6.262666666666666	1.0
788.0052986878944	0.5992999999999998	6.351066666666667	1.0
788.0052986878944	0.5992999999999998	6.371333333333334	1.0
787.7262031647571	0.6063	6.446533333333334	1.0
787.7262031647571	0.5961666666666665	6.446533333333334	1.0
787.5492536913839	0.5713666666666667	6.056533333333333	1.0
787.5492536913839	0.5611333333333333	5.840799999999999	1.0
787.5492536913839	0.5639666666666666	5.866533333333333	1.0
787.1817655339173	0.5712999999999999	5.8915999999999995	1.0
787.1817655339173	0.5694999999999999	6.092133333333333	1.0
786.4454352619075	0.5382333333333332	5.980133333333333	1.0
786.4454352619075	0.5395666666666666	6.059066666666666	1.0
786.076942453402	0.5420333333333331	6.0956	1.0
786.076942453402	0.5420333333333331	6.201866666666667	1.0
786.076942453402	0.5492	6.273999999999999	1.0
786.0770596830889	0.5564666666666666	6.273999999999999	1.0
786.0770596830889	0.5473666666666666	6.235466666666667	1.0
784.9812136656562	0.5286666666666665	6.148000000000001	1.0
784.9812136656562	0.4926666666666666	5.8416	1.0
784.892449883426	0.5004333333333333	5.876933333333333	1.0
784.892449883426	0.5109666666666666	5.947066666666666	1.0
784.892449883426	0.5356	6.2796	1.0
784.8075485600009	0.5537	6.4796000000000005	1.0
784.8075485600009	0.5446666666666666	6.583066666666667	1.0
784.8048916877135	0.5446666666666666	6.593333333333334	1.0
784.8048916877135	0.5550999999999999	6.3752	1.0
784.4383514925917	0.5273666666666667	6.3752	1.0
784.4383514925917	0.5123	6.174133333333334	1.0
784.4383514925917	0.5004666666666666	5.877333333333333	1.0
784.4392765922363	0.4748666666666666	5.593999999999999	1.0
784.4392765922363	0.4825	5.4848	1.0
784.4392765922363	0.5064666666666665	5.927600000000001	1.0
784.4392765922363	0.4881333333333333	5.762933333333333	1.0
783.2573544377626	0.45513333333333333	5.4832	1.0
783.2573544377626	0.4401333333333333	5.2885333333333335	1.0
783.2573544377626	0.44156666666666655	5.276000000000001	1.0
783.1660460658471	0.44156666666666655	5.7787999999999995	1.0
783.1660460658471	0.4667333333333333	6.400800000000001	1.0
782.8927807181051	0.5246333333333333	6.400800000000001	1.0
782.8927807181051	0.5188333333333333	6.397733333333335	1.0
781.7138796023946	0.47379999999999994	5.9017333333333335	1.0
781.7138796023946	0.4567999999999999	5.8028	1.0
781.7138796023946	0.4709999999999999	5.9454666666666665	1.0
781.6314810760058	0.4856999999999999	5.9864	1.0
781.6314810760058	0.48873333333333324	6.1251999999999995	1.0
781.6284636427965	0.4872333333333332	6.137200000000001	1.0
781.6284636427965	0.49333333333333323	6.0508	1.0
781.353210457674	0.4729999999999999	6.0024	1.0
781.353210457674	0.4729999999999999	5.746133333333334	1.0
781.353210457674	0.45353333333333323	5.5225333333333335	1.0
781.3541695518417	0.4515333333333333	5.5225333333333335	1.0
781.3541695518417	0.44049999999999995	5.471066666666667	1.0
780.630518252667	0.4504333333333333	5.600133333333332	1.0
780.630518252667	0.46649999999999997	5.909599999999998	1.0
780.630518252667	0.4454333333333333	5.686133333333334	1.0
780.630518252667	0.4675333333333333	5.841200000000001	1.0
780.630518252667	0.44386666666666663	5.704266666666667	1.0
779.8208476443546	0.4446	5.717066666666667	1.0
779.8208476443546	0.4623999999999999	5.891866666666666	1.0
778.5627628083865	0.4623999999999999	6.022133333333333	1.0
778.5627628083865	0.46553333333333324	5.7208	1.0
778.5633085768803	0.4439666666666667	5.7208	1.0
778.5633085768803	0.4631666666666666	5.937466666666666	1.0
778.5633085768803	0.48096666666666654	6.158933333333333	1.0
778.5647836951899	0.47093333333333326	6.219733333333334	1.0
778.5647836951899	0.44310000000000005	5.754	1.0
778.2920467769636	0.46169999999999994	5.954133333333333	1.0
778.2920467769636	0.44203333333333317	5.793733333333333	1.0
778.2058755010919	0.4324666666666665	5.3868	1.0
778.2058755010919	0.4059999999999999	5.183466666666667	1.0
778.2058755010919	0.4265999999999999	5.4887999999999995	1.0
777.8445847771591	0.4265999999999999	5.590533333333333	1.0
777.8445847771591	0.44163333333333327	5.400133333333333	1.0
777.3998924858397	0.40983333333333327	5.400133333333333	1.0
777.3998924858397	0.42053333333333326	5.3755999999999995	1.0
777.0391820762817	0.42099999999999993	5.429600000000001	1.0
777.0391820762817	0.4010333333333333	5.273466666666667	1.0
777.0391820762817	0.40843333333333326	5.191866666666667	1.0
776.6832632368828	0.42789999999999995	5.4428	1.0
776.6832632368828	0.43809999999999993	5.6828	1.0
776.6832632368828	0.46443333333333325	5.996666666666667	1.0
776.6832632368828	0.41579999999999995	5.3209333333333335	1.0
775.4404913334274	0.4137333333333333	5.3452	1.0
775.4404913334274	0.4137333333333333	5.932133333333333	1.0
775.4404913334274	0.46349999999999997	6.04	1.0
775.4367105401261	0.46393333333333325	6.04	1.0
775.4367105401261	0.46709999999999996	5.990666666666667	1.0
775.1678262648538	0.4354666666666666	5.588533333333333	1.0
775.1678262648538	0.4420333333333333	5.739733333333334	1.0
775.0833968629488	0.3754333333333333	4.893066666666667	1.0
775.0833968629488	0.37613333333333326	4.760133333333333	1.0
775.0833968629488	0.3796666666666666	4.861199999999999	1.0
774.7239378400377	0.4381999999999999	5.572933333333332	1.0
774.7239378400377	0.44909999999999994	5.691866666666667	1.0
774.2851849687565	0.44909999999999994	5.258666666666667	1.0
774.2851849687565	0.41969999999999996	5.280399999999999	1.0
773.9274925142286	0.40579999999999994	5.280399999999999	1.0
773.9274925142286	0.38186666666666663	4.985733333333334	1.0
773.9274925142286	0.3908333333333333	4.898933333333333	1.0
773.5752324518269	0.41163333333333324	5.228000000000001	1.0
773.5752324518269	0.4146333333333333	5.164133333333333	1.0
773.2189067323607	0.3786666666666666	4.8196	1.0
773.2189067323607	0.39133333333333326	5.066933333333333	1.0
772.1578743900656	0.41813333333333325	5.24	1.0
772.1578743900656	0.4194333333333332	5.392533333333334	1.0
772.1578743900656	0.42103333333333326	5.287066666666666	1.0
771.9843997785385	0.42103333333333326	4.7644	1.0
771.9843997785385	0.38196666666666657	4.760133333333333	1.0
771.7172762720639	0.38399999999999995	4.760133333333333	1.0
771.7172762720639	0.3958999999999999	4.966	1.0
771.5459454901886	0.41889999999999994	5.185866666666667	1.0
771.5459454901886	0.3852666666666666	4.810933333333334	1.0
771.5459454901886	0.3999666666666666	4.892266666666666	1.0
771.1947192967456	0.4201333333333333	5.368666666666666	1.0
771.1947192967456	0.38859999999999995	4.731866666666667	1.0
770.7581139901334	0.3760666666666666	4.678133333333333	1.0
770.7581139901334	0.4007333333333332	5.0544	1.0
770.4063631536217	0.39953333333333324	4.8276	1.0
770.4063631536217	0.39953333333333324	4.816933333333333	1.0
770.4063631536217	0.3880333333333333	4.816933333333333	1.0
770.4586031139871	0.4018666666666666	4.840400000000001	1.0
770.4586031139871	0.38043333333333335	4.8308	1.0
769.2640539878541	0.42659999999999987	5.238533333333333	1.0
769.2640539878541	0.4406999999999999	5.577866666666665	1.0
769.2640539878541	0.44043333333333334	5.4530666666666665	1.0
768.9965330526006	0.3916333333333333	4.8124	1.0
768.9965330526006	0.3874666666666666	4.645200000000001	1.0
768.8289655147526	0.42856666666666665	5.148266666666666	1.0
768.8289655147526	0.4582333333333332	5.545333333333333	1.0
768.6484872293997	0.4582333333333332	5.231733333333334	1.0
768.6484872293997	0.4305333333333332	4.9684	1.0
768.6484872293997	0.41479999999999995	4.9684	1.0
768.2117800056046	0.39819999999999994	4.838133333333333	1.0
768.2117800056046	0.4049999999999999	4.885733333333333	1.0
767.7802360358713	0.37793333333333334	4.613066666666667	1.0
767.7802360358713	0.3771999999999999	4.55	1.0
767.4293624839262	0.3796999999999999	4.569733333333334	1.0
767.4293624839262	0.4092666666666666	4.9673333333333325	1.0
767.4293624839262	0.4174999999999999	4.869866666666667	1.0
767.0818383487953	0.3865333333333333	4.62	1.0
767.0818383487953	0.39159999999999995	4.591333333333334	1.0
767.07862411547	0.39159999999999995	4.640666666666667	1.0
767.07862411547	0.3887333333333333	4.595066666666667	1.0
765.9511404028926	0.3897999999999999	4.595066666666667	1.0
765.9511404028926	0.3775333333333333	4.489333333333334	1.0
765.9511404028926	0.38146666666666657	4.52	1.0
765.9510127906022	0.3863666666666666	4.522399999999999	1.0
765.9510127906022	0.3737666666666666	4.5216	1.0
765.8703321889146	0.38423333333333326	4.377199999999999	1.0
765.8703321889146	0.3964999999999999	4.552	1.0
765.5180226995823	0.4404666666666666	5.209733333333333	1.0
765.5180226995823	0.4442	5.108666666666667	1.0
765.5180226995823	0.3810333333333333	4.372	1.0
765.0023737476744	0.3810333333333333	4.322266666666667	1.0
765.0023737476744	0.3737	4.480533333333335	1.0
765.0023737476744	0.3956333333333333	4.480533333333335	1.0
765.0023737476744	0.3873999999999999	4.529333333333333	1.0
764.3931739535078	0.4049666666666666	4.7143999999999995	1.0
764.3931739535078	0.40436666666666665	4.714133333333334	1.0
764.3931739535078	0.4129999999999999	4.763733333333333	1.0
764.3932454117476	0.4034333333333333	4.7186666666666675	1.0
764.3932454117476	0.4019999999999999	4.6424	1.0
764.0838964091711	0.39319999999999994	4.481866666666667	1.0
764.0838964091711	0.3856333333333333	4.428266666666667	1.0
764.0838964091711	0.38423333333333326	4.367733333333334	1.0
764.0838964091711	0.38423333333333326	4.340400000000001	1.0
764.0838964091711	0.3858333333333333	4.372933333333334	1.0
763.9632171067238	0.38543333333333324	4.372933333333334	1.0
763.9632171067238	0.39263333333333333	4.3556	1.0
762.8439676151938	0.3651999999999999	4.0473333333333334	1.0
762.8439676151938	0.3818	4.1896	1.0
762.4157395399608	0.41606666666666664	4.653866666666667	1.0
762.4157395399608	0.4021333333333333	4.51	1.0
762.4157395399608	0.3678999999999999	4.122800000000001	1.0
762.4189505605846	0.38386666666666663	4.368266666666668	1.0
762.4189505605846	0.3820333333333333	4.239866666666667	1.0
762.0742101859631	0.38673333333333326	4.210533333333333	1.0
762.0742101859631	0.38673333333333326	4.367066666666668	1.0
762.0710934852976	0.39056666666666656	4.410133333333334	1.0
762.0710934852976	0.39899999999999997	4.410133333333334	1.0
762.0710934852976	0.39949999999999997	4.383733333333335	1.0
762.0717671163824	0.38459999999999994	4.311466666666667	1.0
762.0717671163824	0.3930666666666666	4.2994666666666665	1.0
762.0732355350129	0.39123333333333327	4.2604	1.0
762.0732355350129	0.3881666666666666	4.160666666666666	1.0
