wavelength(nm)	flourescence PMT(V)	ti_saph Power (V)	Gain (V)
800.4290643304588	0.18976666666666658	1.1412	1.1
800.4290643304588	0.1772666666666666	1.0784	1.1
800.360902664079	0.18239999999999995	1.0517333333333332	1.1
800.8101597714774	0.19783333333333328	1.1333333333333333	1.1
800.8101879078351	0.18343333333333325	1.16	1.1
800.8101879078351	0.18949999999999995	1.1330666666666669	1.1
801.0999499778392	0.17759999999999992	1.0782666666666667	1.1
801.1934988418504	0.17759999999999992	1.0789333333333335	1.1
801.1934852135843	0.17483333333333329	1.0781333333333336	1.1
801.1934852135843	0.18096666666666658	1.0781333333333336	1.1
801.2802390916404	0.18579999999999994	1.0752	1.1
801.2844303996874	0.18103333333333324	1.1030666666666666	1.1
801.2883745825721	0.19319999999999993	1.1605333333333334	1.1
801.2883745825721	0.1834666666666666	1.1141333333333334	1.1
801.3863131185847	0.17329999999999993	1.0800000000000003	1.1
802.3360200013262	0.17743333333333328	1.0785333333333336	1.1
802.7199123743845	0.1825999999999999	1.1258666666666668	1.1
802.7199123743845	0.18753333333333325	1.100666666666667	1.1
802.7212946803803	0.18229999999999993	1.16	1.1
802.9070906021852	0.18229999999999993	1.1461333333333334	1.1
803.3811003687731	0.18813333333333326	1.1186666666666667	1.1
803.3811003687731	0.19703333333333323	1.1186666666666667	1.1
803.384701496522	0.18303333333333327	1.1406666666666667	1.1
804.057162083378	0.17873333333333327	1.1288000000000002	1.1
804.057135834209	0.19013333333333327	1.2289333333333337	1.1
804.057135834209	0.18893333333333326	1.2221333333333337	1.1
804.0551760505235	0.18969999999999995	1.16	1.1
804.3932183171947	0.18629999999999994	1.1565333333333334	1.1
804.3401471134267	0.19129999999999991	1.1558666666666668	1.1
804.3401471134267	0.19069999999999995	1.134266666666667	1.1
804.3401471134267	0.1811666666666666	1.0865333333333334	1.1
804.4407030153803	0.1811666666666666	1.1213333333333335	1.1
804.6346084375426	0.17919999999999991	1.1597333333333335	1.1
804.6346084375426	0.19233333333333325	1.1597333333333335	1.1
804.6312872855225	0.19683333333333328	1.1596000000000002	1.1
804.915805400705	0.19883333333333325	1.1882666666666668	1.1
805.7783022678457	0.17953333333333327	1.1054666666666668	1.1
806.2950242183753	0.1908666666666666	1.1509333333333334	1.1
806.2950242183753	0.1823666666666666	1.1601333333333337	1.1
806.0769171748291	0.1890999999999999	1.1681333333333335	1.1
806.2585831755554	0.19423333333333326	1.243066666666667	1.1
806.3538877351568	0.19033333333333327	1.2117333333333336	1.1
806.3538877351568	0.1951666666666666	1.1621333333333335	1.1
806.9443806189095	0.1951666666666666	1.1569333333333334	1.1
807.1692789601409	0.19943333333333327	1.1569333333333334	1.1
807.5156621116747	0.1915999999999999	1.16	1.1
807.5156621116747	0.18253333333333324	1.16	1.1
807.5156621116747	0.17753333333333327	1.1593333333333335	1.1
807.7105801156582	0.19529999999999995	1.16	1.1
807.8061043692965	0.18733333333333324	1.1565333333333334	1.1
807.8061043692965	0.1923666666666666	1.1586666666666667	1.1
807.8054985882782	0.18073333333333327	1.1421333333333337	1.1
807.9002296650491	0.19399999999999992	1.2308000000000001	1.1
808.002732915348	0.2095333333333333	1.2266666666666668	1.1
808.002732915348	0.2095333333333333	1.1602666666666668	1.1
808.002732915348	0.20279999999999992	1.1606666666666667	1.1
808.196981688273	0.17886666666666662	1.1606666666666667	1.1
808.1968650142007	0.19173333333333328	1.16	1.1
808.1968650142007	0.18973333333333325	1.1481333333333335	1.1
808.2880385223544	0.18983333333333327	1.1136000000000001	1.1
809.3596180511213	0.19146666666666662	1.1490666666666667	1.1
809.3596180511213	0.19173333333333328	1.2660000000000002	1.1
809.3596180511213	0.19483333333333328	1.2716000000000003	1.1
809.4564440940526	0.18749999999999992	1.2185333333333335	1.1
809.4550777552416	0.19399999999999992	1.1853333333333333	1.1
809.4564511415426	0.18746666666666661	1.1640000000000001	1.1
809.4564511415426	0.18746666666666661	1.1676000000000002	1.1
810.2411196125012	0.19886666666666655	1.1752000000000002	1.1
810.420368570816	0.19316666666666657	1.1752000000000002	1.1
810.6246448280154	0.19859999999999994	1.3144000000000002	1.1
810.722759665513	0.18733333333333327	1.215466666666667	1.1
810.722759665513	0.19289999999999993	1.1965333333333334	1.1
811.1078528573129	0.1890666666666666	1.1820000000000002	1.1
811.2195129797703	0.18989999999999993	1.2321333333333337	1.1
811.2194828400787	0.18499999999999994	1.185066666666667	1.1
811.2194828400787	0.19213333333333327	1.1629333333333336	1.1
811.410441871691	0.19073333333333328	1.3064000000000002	1.1
811.4104198231421	0.20009999999999992	1.2666666666666668	1.1
811.4979199631277	0.20009999999999992	1.1612	1.1
811.4979199631277	0.18079999999999993	1.1608	1.1
811.502068923728	0.18539999999999995	1.1608	1.1
811.6913717382273	0.1807666666666666	1.16	1.1
811.3944377273731	0.1815666666666666	1.1600000000000001	1.1
811.3944377273731	0.18899999999999995	1.1593333333333335	1.1
812.8623083205767	0.1988999999999999	1.304	1.1
813.0696206860297	0.18799999999999992	1.2394666666666667	1.1
813.1640417093971	0.18243333333333325	1.1601333333333337	1.1
813.1640417093971	0.18999999999999992	1.1596000000000002	1.1
813.1640417093971	0.17713333333333325	1.1601333333333335	1.1
814.043368975476	0.18586666666666662	1.1860000000000002	1.1
814.044288845792	0.18586666666666662	1.276266666666667	1.1
814.044288845792	0.18503333333333324	1.2997333333333336	1.1
814.044288845792	0.19043333333333326	1.2997333333333336	1.1
814.5381622894841	0.19383333333333325	1.3197333333333336	1.1
814.7385246160209	0.1973666666666666	1.3676000000000004	1.1
814.7385246160209	0.19243333333333326	1.375466666666667	1.1
814.7395927537349	0.18763333333333326	1.3978666666666668	1.1
814.7349647595216	0.2022666666666666	1.3978666666666668	1.1
814.7362136493989	0.1958666666666666	1.394666666666667	1.1
814.7362136493989	0.1872999999999999	1.2394666666666667	1.1
815.3204890873297	0.18519999999999992	1.2298666666666669	1.1
815.3292248623289	0.19069999999999993	1.296266666666667	1.1
815.3202341332714	0.19069999999999993	1.321866666666667	1.1
815.3202341332714	0.19919999999999993	1.1858666666666666	1.1
816.2091611525412	0.1838333333333333	1.1858666666666666	1.1
816.9096286202908	0.18179999999999993	1.16	1.1
816.9079327248613	0.17546666666666663	1.1884000000000001	1.1
817.3050171994558	0.18483333333333327	1.3041333333333338	1.1
817.3050171994558	0.18753333333333325	1.2473333333333334	1.1
817.4917844128385	0.18269999999999995	1.2960000000000003	1.1
817.4037172750118	0.1852666666666666	1.2885333333333335	1.1
818.195707789186	0.17879999999999993	1.1980000000000004	1.1
818.195707789186	0.17813333333333328	1.1660000000000001	1.1
818.1960737626074	0.19103333333333325	1.3278666666666668	1.1
818.285750529692	0.19103333333333325	1.283466666666667	1.1
818.2927415529581	0.17903333333333327	1.2402666666666669	1.1
818.2927415529581	0.1787666666666666	1.2402666666666669	1.1
818.2898544744816	0.17133333333333325	1.2241333333333335	1.1
818.5912974232607	0.1840666666666666	1.1664000000000003	1.1
818.5913931163875	0.1786666666666666	1.1601333333333337	1.1
818.5913931163875	0.17049999999999993	1.16	1.1
818.5931991600635	0.16533333333333328	1.16	1.1
818.689623541241	0.17889999999999992	1.1601333333333335	1.1
819.3884239699219	0.17743333333333325	1.2162666666666668	1.1
819.3884239699219	0.1762666666666666	1.3089333333333335	1.1
819.7891360768019	0.18273333333333328	1.3589333333333335	1.1
819.793093734875	0.18273333333333328	1.3509333333333335	1.1
820.4947091112301	0.17883333333333326	1.3208000000000002	1.1
820.4947091112301	0.1881666666666666	1.3208000000000002	1.1
820.4955979047443	0.18213333333333326	1.362666666666667	1.1
820.4955979047443	0.17639999999999992	1.3216000000000003	1.1
820.9898331691159	0.18053333333333327	1.2769333333333335	1.1
821.1305056667676	0.17123333333333327	1.2468000000000004	1.1
821.1305056667676	0.16946666666666657	1.3276000000000003	1.1
821.1305056667676	0.18019999999999994	1.3278666666666668	1.1
821.7920978138549	0.18389999999999992	1.3869333333333336	1.1
821.8912670711629	0.18089999999999992	1.3802666666666668	1.1
821.8912670711629	0.17209999999999995	1.3469333333333338	1.1
821.8871513648357	0.17209999999999995	1.3773333333333337	1.1
821.8914721571058	0.17753333333333327	1.3868000000000003	1.1
821.8913761040491	0.17633333333333326	1.3868000000000003	1.1
821.8913761040491	0.1802999999999999	1.3760000000000003	1.1
821.8913761040491	0.17443333333333327	1.3188000000000004	1.1
822.3331553182287	0.17813333333333325	1.2549333333333337	1.1
823.4968477646742	0.17749999999999994	1.2698666666666667	1.1
823.4968477646742	0.17553333333333326	1.3586666666666667	1.1
823.4940961295655	0.17063333333333328	1.4773333333333332	1.1
823.4988232088469	0.1750666666666666	1.4796	1.1
823.4988232088469	0.17283333333333326	1.4034666666666666	1.1
823.4988232088469	0.16893333333333327	1.3098666666666667	1.1
824.0957997204364	0.16893333333333327	1.3882666666666668	1.1
824.303503060022	0.1641333333333333	1.3882666666666668	1.1
824.4006521073658	0.17849999999999994	1.2929333333333337	1.1
824.4006521073658	0.16046666666666662	1.1700000000000002	1.1
824.4006521073658	0.16829999999999992	1.2260000000000002	1.1
824.8095294173834	0.1673666666666666	1.2673333333333334	1.1
825.3100742148666	0.1652666666666666	1.3501333333333336	1.1
825.3100742148666	0.16249999999999992	1.2737333333333336	1.1
825.3078913351602	0.16609999999999991	1.277066666666667	1.1
825.214009830555	0.16903333333333326	1.3217333333333336	1.1
825.4067067676599	0.1661666666666666	1.3853333333333333	1.1
825.611585413817	0.1661666666666666	1.4593333333333331	1.1
825.611585413817	0.17539999999999992	1.4473333333333334	1.1
825.7151378824188	0.1676666666666666	1.4473333333333334	1.1
825.6169674494421	0.1743666666666666	1.375466666666667	1.1
825.6169674494421	0.16499999999999995	1.3216000000000003	1.1
825.6169674494421	0.17263333333333328	1.3197333333333336	1.1
826.5236784758599	0.16639999999999994	1.3297333333333337	1.1
826.5236784758599	0.15956666666666663	1.3829333333333336	1.1
827.0315822347916	0.1567666666666666	1.2388000000000003	1.1
827.0315822347916	0.16609999999999994	1.2909333333333337	1.1
827.237808093393	0.15809999999999994	1.3432000000000002	1.1
827.237808093393	0.15253333333333327	1.3201333333333336	1.1
827.7447227272991	0.15253333333333327	1.3208000000000004	1.1
827.7447227272991	0.16753333333333328	1.3980000000000001	1.1
827.7447227272991	0.16853333333333329	1.3980000000000001	1.1
828.2506461641963	0.15809999999999994	1.4736000000000002	1.1
828.6566343394826	0.15253333333333327	1.4664	1.1
828.6566343394826	0.1638666666666666	1.3897333333333335	1.1
828.6566478147379	0.16186666666666663	1.3417333333333334	1.1
828.8720046321032	0.15323333333333328	1.3228000000000002	1.1
828.8593055213181	0.15319999999999992	1.4133333333333333	1.1
828.8593055213181	0.16909999999999992	1.4709333333333332	1.1
829.3717405449058	0.16619999999999996	1.357866666666667	1.1
829.3728098755657	0.16279999999999994	1.4777333333333333	1.1
829.3728098755657	0.16279999999999994	1.458133333333333	1.1
829.3728098755657	0.16859999999999994	1.3704000000000003	1.1
829.4731031542262	0.15823333333333328	1.3704000000000003	1.1
829.9863378752835	0.16116666666666662	1.3370666666666668	1.1
829.9862841422574	0.16779999999999995	1.3989333333333334	1.1
830.4916101498973	0.16433333333333328	1.3789333333333336	1.1
830.4916101498973	0.16419999999999993	1.3200000000000003	1.1
830.4931102468685	0.1671666666666666	1.3941333333333334	1.1
830.9026717979135	0.1634333333333333	1.3189333333333335	1.1
831.2174588282797	0.1528333333333333	1.2770666666666668	1.1
831.2174588282797	0.16039999999999993	1.3200000000000003	1.1
831.213105001471	0.1599666666666666	1.3536000000000001	1.1
831.213105001471	0.1599666666666666	1.2893333333333337	1.1
831.7228241247176	0.15606666666666663	1.216266666666667	1.1
831.7228241247176	0.14923333333333327	1.216266666666667	1.1
832.1383868522929	0.16146666666666662	1.3444000000000003	1.1
832.1383868522929	0.16303333333333328	1.48	1.1
832.5560159824564	0.15966666666666665	1.3225333333333338	1.1
832.5560159824564	0.16483333333333328	1.2728000000000004	1.1
832.6516969253561	0.1888666666666666	1.4793333333333332	1.1
833.0641320874854	0.1817666666666666	1.4701333333333333	1.1
833.3764416142336	0.17669999999999994	1.4007999999999998	1.1
833.3764416142336	0.1750666666666666	1.3014666666666668	1.1
833.3778916983288	0.18553333333333324	1.2361333333333335	1.1
833.4747090591204	0.18553333333333324	1.2402666666666669	1.1
833.888928070711	0.1757666666666666	1.382666666666667	1.1
833.888928070711	0.2035666666666666	1.382666666666667	1.1
833.8886210069462	0.19523333333333326	1.1145333333333334	1.1
833.9918679956315	0.1949666666666666	1.0786666666666667	1.1
834.3012907596542	0.19336666666666658	1.0824	1.1
834.3012907596542	0.22926666666666656	1.1036000000000001	1.1
834.3068688372247	0.2427666666666666	1.0798666666666668	1.1
834.5152616659092	0.22953333333333328	1.0416	1.1
834.8204826039092	0.16326666666666662	0.23013333333333355	1.1
835.2274604431614	0.1571333333333333	0.1502666666666668	1.1
835.2274604431614	0.13439999999999996	0.032533333333333365	1.1
835.4324970767343	0.13439999999999996	-0.010266666666666676	1.1
835.6526426212505	0.12633333333333327	-0.028266666666666693	1.1
835.7484070698986	0.11883333333333328	-0.028266666666666693	1.1
835.7484070698986	0.10933333333333328	-0.03320000000000003	1.1
836.0589111014203	0.10759999999999996	-0.03373333333333336	1.1
836.0689396039315	0.10886666666666661	-0.03320000000000003	1.1
836.5814113040942	0.11336666666666663	-0.034800000000000025	1.1
836.5814113040942	0.10736666666666662	-0.03453333333333337	1.1
836.7918435136706	0.11259999999999995	-0.03453333333333337	1.1
836.7899107488344	0.10883333333333331	-0.032533333333333365	1.1
837.0952282011381	0.11059999999999998	-0.03440000000000003	1.1
837.0952282011381	0.11759999999999995	-0.03266666666666669	1.1
837.0954428197173	0.11759999999999995	-0.03200000000000003	1.1
837.0960715232239	0.10946666666666663	-0.031333333333333366	1.1
837.5152838641012	0.10123333333333327	-0.031333333333333366	1.1
837.5152838641012	0.10819999999999995	-0.0338666666666667	1.1
837.7310944845475	0.10996666666666663	-0.032533333333333365	1.1
837.7339325367784	0.10899999999999996	-0.03413333333333336	1.1
837.829012744601	0.11436666666666663	-0.033066666666666696	1.1
837.829012744601	0.10389999999999996	-0.03440000000000003	1.1
838.563383715483	0.11083333333333328	-0.034800000000000025	1.1
838.8682382520097	0.10326666666666663	-0.03360000000000003	1.1
839.0835345142219	0.10499999999999995	-0.034800000000000025	1.1
838.9774665645438	0.10659999999999994	-0.03440000000000003	1.1
838.9774665645438	0.10659999999999994	-0.03360000000000003	1.1
839.294127801465	0.10453333333333328	-0.03360000000000003	1.1
839.5106601296453	0.10419999999999996	-0.032266666666666693	1.1
839.8774416867643	0.10576666666666663	-0.03373333333333336	1.1
839.8774416867643	0.10599999999999994	-0.03293333333333336	1.1
840.4554931617256	0.10779999999999994	-0.03440000000000003	1.1
840.4554931617256	0.10419999999999997	-0.03213333333333336	1.1
840.6623602629625	0.1017333333333333	-0.031600000000000024	1.1
840.6623602629625	0.10776666666666661	-0.034266666666666695	1.1
840.8621329220686	0.10389999999999996	-0.03266666666666669	1.1
840.8609782262462	0.1059333333333333	-0.03333333333333336	1.1
841.2850943710115	0.1059333333333333	-0.03333333333333336	1.1
841.2850943710115	0.10386666666666661	-0.03213333333333336	1.1
841.2865299874982	0.10656666666666662	-0.03213333333333336	1.1
841.2865299874982	0.10829999999999997	-0.034266666666666695	1.1
841.3984889298225	0.10446666666666662	-0.03400000000000003	1.1
841.3984889298225	0.1052333333333333	-0.03213333333333336	1.1
841.6039937118672	0.1029666666666666	-0.03093333333333336	1.1
842.0268963517447	0.10576666666666662	-0.03266666666666669	1.1
842.026863802662	0.10776666666666661	-0.03373333333333336	1.1
842.026863802662	0.10739999999999995	-0.03213333333333336	1.1
842.6478458463112	0.10796666666666663	-0.032533333333333365	1.1
842.6477560196192	0.11209999999999996	-0.03080000000000003	1.1
842.9762640600825	0.11209999999999996	-0.031866666666666696	1.1
842.9762640600825	0.10439999999999995	-0.03373333333333336	1.1
843.0741684067157	0.10913333333333329	-0.03373333333333336	1.1
843.3893357515085	0.10886666666666661	-0.03213333333333336	1.1
843.3893357515085	0.10153333333333328	-0.030400000000000028	1.1
843.3893357515085	0.11133333333333328	-0.031600000000000024	1.1
844.3479014157039	0.1059333333333333	-0.03320000000000003	1.1
844.4538702567032	0.09953333333333328	-0.0334666666666667	1.1
844.6688414459827	0.11106666666666662	-0.0334666666666667	1.1
844.7702601644611	0.10869999999999995	-0.032266666666666693	1.1
844.7702601644611	0.10989999999999994	-0.03173333333333336	1.1
844.8758430181799	0.1101333333333333	-0.03266666666666669	1.1
842.8246128911829	0.11039999999999997	-0.03440000000000003	1.1
842.6514049882086	0.1068333333333333	-0.03400000000000003	1.1
842.2297095422064	0.10853333333333329	-0.0334666666666667	1.1
841.9142940468003	0.11189999999999996	-0.03600000000000003	1.1
841.9142940468003	0.11189999999999996	-0.034800000000000025	1.1
841.7100184892673	0.11486666666666662	-0.0350666666666667	1.1
841.6066256933652	0.11196666666666663	-0.0350666666666667	1.1
841.2906709359845	0.11176666666666663	-0.0346666666666667	1.1
841.2906709359845	0.1121333333333333	-0.03200000000000003	1.1
841.2860744397768	0.11309999999999998	-0.034800000000000025	1.1
840.970208493023	0.11166666666666662	-0.03280000000000003	1.1
840.8677140370281	0.10036666666666662	-0.03320000000000003	1.1
840.8677140370281	0.10516666666666663	-0.03293333333333336	1.1
840.9654879527012	0.11403333333333326	-0.03586666666666669	1.1
840.6634155497279	0.11026666666666661	-0.034933333333333365	1.1
840.5510209881961	0.11009999999999996	-0.03440000000000003	1.1
840.5510209881961	0.11009999999999996	-0.03600000000000003	1.1
840.4469991372752	0.10816666666666663	-0.03600000000000003	1.1
839.9185498971259	0.1117333333333333	-0.034933333333333365	1.1
839.8264507818725	0.10839999999999994	-0.0338666666666667	1.1
839.8264507818725	0.11516666666666661	-0.034800000000000025	1.1
839.5089199676546	0.10553333333333328	-0.034266666666666695	1.1
839.3988773327208	0.10509999999999996	-0.034800000000000025	1.1
839.0890240888119	0.10799999999999997	-0.03200000000000003	1.1
839.0890240888119	0.11419999999999997	-0.03280000000000003	1.1
838.9807949535973	0.10969999999999996	-0.03413333333333336	1.1
838.2458472987701	0.11333333333333329	-0.0338666666666667	1.1
838.2482477592539	0.11333333333333329	-0.035466666666666695	1.1
838.2482477592539	0.11406666666666662	-0.0338666666666667	1.1
837.7266591569135	0.11019999999999996	-0.0338666666666667	1.1
837.7300942994217	0.10726666666666664	-0.03440000000000003	1.1
837.4326437841997	0.10736666666666662	-0.032533333333333365	1.1
837.4326437841997	0.10859999999999995	-0.03360000000000003	1.1
837.4326437841997	0.10376666666666663	-0.031333333333333366	1.1
837.1046745728546	0.10719999999999996	-0.03213333333333336	1.1
837.0016954551663	0.10963333333333329	-0.03280000000000003	1.1
836.5422759305368	0.10673333333333328	-0.03440000000000003	1.1
836.5422759305368	0.11169999999999995	-0.03400000000000003	1.1
836.5867116313535	0.10676666666666662	-0.033066666666666696	1.1
836.5867116313535	0.10676666666666662	-0.03360000000000003	1.1
835.8636682875502	0.10886666666666661	-0.035600000000000034	1.1
835.8636682875502	0.11136666666666661	-0.035600000000000034	1.1
836.1086608240269	0.11136666666666661	-0.034800000000000025	1.1
835.6458710732117	0.11229999999999994	-0.03266666666666669	1.1
835.4408318638192	0.11419999999999997	-0.03360000000000003	1.1
835.4408318638192	0.11116666666666662	-0.028000000000000025	1.1
835.4413580551799	0.12033333333333326	-0.02400000000000002	1.1
835.0350496547493	0.12269999999999996	-0.008400000000000008	1.1
835.0350496547493	0.14386666666666664	0.08026666666666674	1.1
835.0350496547493	0.1581666666666666	0.19226666666666684	1.1
834.301380403226	0.17459999999999995	0.3109333333333335	1.1
834.3019778880401	0.17459999999999995	1.0650666666666668	1.1
834.304883966058	0.22906666666666656	1.0782666666666667	1.1
834.304883966058	0.23593333333333324	1.0782666666666667	1.1
833.8845071896906	0.22253333333333322	1.1234666666666668	1.1
833.8929005007874	0.19863333333333327	1.0805333333333333	1.1
833.3779272528668	0.19123333333333326	1.0828	1.1
833.3779272528668	0.1754666666666666	1.1652000000000002	1.1
833.3779272528668	0.18983333333333324	1.2366666666666668	1.1
833.3764731788409	0.1860666666666666	1.2120000000000002	1.1
832.9624320926835	0.1776666666666666	1.3061333333333336	1.1
832.9629193812622	0.18393333333333325	1.4798666666666667	1.1
832.9629193812622	0.1773666666666666	1.4730666666666665	1.1
832.6497705534109	0.1773666666666666	1.4536	1.1
832.6482029658748	0.17373333333333327	1.4009333333333331	1.1
832.5558279357754	0.1735666666666666	1.4009333333333331	1.1
832.5558279357754	0.17199999999999993	1.3941333333333334	1.1
832.1417852757743	0.1635666666666666	1.3422666666666672	1.1
832.1374246430545	0.1741666666666666	1.4758666666666667	1.1
831.7210757214602	0.1569333333333333	1.4012	1.1
831.7210757214602	0.16053333333333328	1.1916000000000002	1.1
831.2128468384034	0.16449999999999992	1.279066666666667	1.1
831.2128468384034	0.15523333333333325	1.3200000000000003	1.1
831.2126017873145	0.16023333333333328	1.3164000000000002	1.1
831.2126017873145	0.16303333333333328	1.3200000000000003	1.1
830.5945247117571	0.16303333333333328	1.3192000000000004	1.1
830.3926277572675	0.16123333333333328	1.309866666666667	1.1
830.0874704853443	0.16329999999999995	1.309866666666667	1.1
830.0874704853443	0.1606666666666666	1.3545333333333338	1.1
829.8881590157808	0.16499999999999995	1.3845333333333334	1.1
829.8880125730024	0.17149999999999993	1.3904	1.1
829.8880125730024	0.15773333333333325	1.3276000000000003	1.1
829.8880125730024	0.16189999999999996	1.3137333333333336	1.1
829.3823006275729	0.16979999999999995	1.3800000000000001	1.1
829.2735670067638	0.16763333333333327	1.3200000000000003	1.1
829.2731483958805	0.16259999999999994	1.2404000000000002	1.1
829.2731483958805	0.1621666666666666	1.3592000000000002	1.1
828.8586815650428	0.1621666666666666	1.4501333333333335	1.1
828.658617585007	0.1703666666666666	1.3797333333333335	1.1
828.2505286493958	0.15359999999999996	1.3797333333333335	1.1
828.2505286493958	0.16683333333333328	1.3613333333333337	1.1
828.2505286493958	0.17519999999999994	1.4182666666666668	1.1
827.8397463442238	0.16799999999999993	1.458	1.1
827.3375997944075	0.16109999999999994	1.3828	1.1
827.3360489577342	0.16389999999999996	1.3538666666666668	1.1
827.3360489577342	0.16526666666666662	1.324266666666667	1.1
827.2420467660438	0.15806666666666663	1.374	1.1
827.031003004213	0.16683333333333328	1.3905333333333332	1.1
826.6258602619852	0.1662666666666666	1.2756000000000003	1.1
826.6258602619852	0.1662666666666666	1.3581333333333334	1.1
826.6258602619852	0.16419999999999996	1.3581333333333334	1.1
825.6168785872752	0.17353333333333326	1.4324000000000001	1.1
825.7186790485046	0.17336666666666659	1.3268000000000002	1.1
825.7186790485046	0.17083333333333328	1.3214666666666668	1.1
825.7186790485046	0.16059999999999994	1.391066666666667	1.1
825.6167422549322	0.1669666666666666	1.4138666666666666	1.1
825.3099829230157	0.1737666666666666	1.4285333333333334	1.1
825.3099829230157	0.16649999999999993	1.3980000000000001	1.1
825.3100977263742	0.16603333333333328	1.3224000000000002	1.1
825.2122425282381	0.16709999999999994	1.2980000000000003	1.1
824.9053499347899	0.16709999999999994	1.2417333333333336	1.1
824.9053499347899	0.17009999999999995	1.3272000000000004	1.1
824.4033340956596	0.1655666666666666	1.3272000000000004	1.1
824.4033340956596	0.16439999999999996	1.3033333333333335	1.1
824.3062801586821	0.16859999999999994	1.2400000000000002	1.1
824.3062801586821	0.17129999999999995	1.3089333333333335	1.1
824.0973180499568	0.17433333333333328	1.352666666666667	1.1
824.0010612215307	0.16759999999999992	1.3501333333333336	1.1
824.0010612215307	0.17753333333333327	1.3433333333333337	1.1
824.0010612215307	0.17089999999999994	1.48	1.1
823.4951464944925	0.17869999999999994	1.4798666666666667	1.1
822.4870874947494	0.19089999999999993	1.3973333333333335	1.1
822.4870825385187	0.18176666666666663	1.3457333333333337	1.1
822.1986188684238	0.18176666666666663	1.315866666666667	1.1
822.1986188684238	0.17903333333333327	1.315866666666667	1.1
821.9818050136071	0.17256666666666662	1.3216000000000003	1.1
821.883539735255	0.17716666666666658	1.3200000000000003	1.1
821.8866846611389	0.17663333333333328	1.3385333333333336	1.1
821.8866846611389	0.17833333333333326	1.3596000000000001	1.1
821.5850551318335	0.1838666666666666	1.315866666666667	1.1
821.5850551318335	0.16653333333333326	1.2333333333333336	1.1
821.0905860896551	0.16819999999999993	1.1997333333333333	1.1
821.0905860896551	0.1707333333333333	1.3076000000000003	1.1
821.0905751733388	0.17339999999999992	1.3189333333333335	1.1
820.5935591201409	0.1745333333333333	1.2773333333333334	1.1
820.5892241169626	0.1745333333333333	1.3216000000000003	1.1
820.5892241169626	0.17519999999999994	1.3216000000000003	1.1
819.7879568096724	0.16613333333333327	1.3296000000000003	1.1
819.7892590171008	0.1856333333333333	1.3557333333333335	1.1
819.7892590171008	0.1838666666666666	1.3794666666666668	1.1
819.7892590171008	0.1655666666666666	1.342666666666667	1.1
818.5912916596862	0.17449999999999993	1.1606666666666667	1.1
818.5931246689134	0.18743333333333326	1.2392000000000003	1.1
818.5915162711419	0.17903333333333327	1.16	1.1
818.4986637572966	0.17446666666666658	1.1769333333333334	1.1
818.4986637572966	0.1926999999999999	1.2824	1.1
818.4986637572966	0.17623333333333324	1.2394666666666667	1.1
818.289221792974	0.17623333333333324	1.2397333333333336	1.1
818.1913302009743	0.17729999999999996	1.3064000000000002	1.1
818.1913302009743	0.18259999999999993	1.3064000000000002	1.1
817.7949382350572	0.18679999999999994	1.324	1.1
817.4960048074558	0.18733333333333327	1.1613333333333336	1.1
817.3012260306278	0.18666666666666656	1.239866666666667	1.1
817.3012260306278	0.17229999999999995	1.1686666666666667	1.1
816.906858425462	0.17853333333333324	1.2036000000000002	1.1
816.9069668794313	0.17773333333333327	1.3200000000000003	1.1
816.2083808864172	0.1969666666666666	1.3200000000000003	1.1
816.2083808864172	0.18469999999999992	1.1602666666666668	1.1
816.2084586217119	0.17739999999999995	1.16	1.1
816.2084586217119	0.17739999999999995	1.319066666666667	1.1
815.3259709001514	0.1949666666666666	1.375866666666667	1.1
815.3259709001514	0.1862666666666666	1.375866666666667	1.1
815.1263672898817	0.19099999999999992	1.3257333333333334	1.1
814.7363713999686	0.19029999999999994	1.2178666666666669	1.1
814.7406444219565	0.1890666666666666	1.2358666666666671	1.1
814.7406444219565	0.1919666666666666	1.3830666666666669	1.1
814.7384573008636	0.19723333333333323	1.3994666666666666	1.1
814.7386144859476	0.19546666666666662	1.3992	1.1
814.536169611403	0.20249999999999993	1.3905333333333334	1.1
814.536169611403	0.19423333333333329	1.3724000000000003	1.1
814.536169611403	0.20503333333333326	1.2404000000000002	1.1
814.0430653388926	0.20503333333333326	1.2813333333333337	1.1
813.0717191725149	0.1952666666666666	1.2448000000000001	1.1
813.1625988636191	0.19339999999999993	1.2448000000000001	1.1
813.1625988636191	0.1877666666666666	1.1805333333333337	1.1
812.865626744606	0.19099999999999995	1.1601333333333337	1.1
812.6725023023258	0.18239999999999992	1.161066666666667	1.1
811.8930939080534	0.19663333333333327	1.2996000000000003	1.1
811.8930939080534	0.2079666666666666	1.343466666666667	1.1
811.7966924008583	0.1873666666666666	1.1668000000000003	1.1
811.5014174423592	0.1820666666666666	1.1598666666666668	1.1
811.4971080620846	0.18706666666666658	1.1556000000000002	1.1
811.4971080620846	0.17883333333333326	1.1552000000000002	1.1
811.40608424411	0.18333333333333326	1.1618666666666668	1.1
811.4065369296251	0.18333333333333326	1.2868000000000002	1.1
811.2979118020319	0.1978666666666666	1.2868000000000002	1.1
811.2979118020319	0.19959999999999994	1.2925333333333338	1.1
811.1110409402801	0.1997666666666666	1.2512000000000003	1.1
810.9214473782079	0.19806666666666659	1.3680000000000003	1.1
810.6248340354762	0.19183333333333327	1.2521333333333338	1.1
810.6248340354762	0.19433333333333327	1.2445333333333335	1.1
810.6270001986726	0.2012666666666666	1.3201333333333336	1.1
810.2373376154891	0.18993333333333326	1.309866666666667	1.1
809.9376548870089	0.1865666666666666	1.1660000000000001	1.1
809.9376548870089	0.18829999999999994	1.16	1.1
809.9376548870089	0.18829999999999994	1.1605333333333336	1.1
809.3610135362966	0.18966666666666662	1.2440000000000002	1.1
809.3645812719403	0.19219999999999995	1.2440000000000002	1.1
809.3604287509312	0.1946666666666666	1.2364000000000002	1.1
809.3604287509312	0.19566666666666657	1.2625333333333337	1.1
808.287010139077	0.1880666666666666	1.269066666666667	1.1
808.287010139077	0.19153333333333328	1.1793333333333336	1.1
808.2339753759177	0.1853666666666666	1.1632	1.1
808.2339753759177	0.18899999999999995	1.164666666666667	1.1
807.7232493374415	0.20566666666666658	1.1708000000000003	1.1
807.8112790373971	0.1856666666666666	1.1714666666666669	1.1
807.8077809143839	0.19589999999999994	1.2120000000000002	1.1
807.8077809143839	0.19589999999999994	1.2374666666666672	1.1
807.7160539268539	0.19893333333333327	1.2188000000000003	1.1
807.7160539268539	0.19309999999999994	1.2188000000000003	1.1
807.5223504795249	0.1934666666666666	1.1576000000000002	1.1
807.5223504795249	0.1880666666666666	1.1194666666666668	1.1
806.9417919111136	0.17846666666666658	1.1501333333333337	1.1
806.8468625793815	0.18479999999999994	1.16	1.1
806.6466789893988	0.18769999999999995	1.1477333333333335	1.1
806.6466789893988	0.18973333333333328	1.1168000000000002	1.1
806.0750495972392	0.18423333333333328	1.1745333333333334	1.1
806.070536824288	0.19043333333333326	1.1864000000000003	1.1
805.7782543339129	0.19883333333333325	1.1720000000000002	1.1
805.7782543339129	0.19883333333333325	1.2004000000000001	1.1
804.9186844955514	0.19059999999999994	1.1613333333333336	1.1
804.8255415566528	0.1847333333333333	1.1613333333333336	1.1
804.7319238574175	0.18419999999999992	1.1606666666666667	1.1
804.7319238574175	0.1827999999999999	1.1360000000000001	1.1
804.7319238574175	0.1876333333333333	1.1348000000000003	1.1
804.4371224443805	0.18449999999999994	1.0761333333333334	1.1
804.3453683142093	0.18209999999999993	1.0796	1.1
804.3453683142093	0.18849999999999995	1.1361333333333334	1.1
804.1492274082763	0.18753333333333325	1.128666666666667	1.1
804.2432205738254	0.18353333333333327	1.1334666666666668	1.1
804.059595830791	0.19393333333333326	1.1609333333333336	1.1
803.3869461482786	0.19393333333333326	1.1612	1.1
803.3869461482786	0.19076666666666658	1.1602666666666668	1.1
802.9049735037088	0.18773333333333325	1.1602666666666668	1.1
802.8097382248243	0.18953333333333328	1.1470666666666667	1.1
802.722371670606	0.18219999999999995	1.1583999999999999	1.1
802.722371670606	0.1947666666666666	1.1622666666666668	1.1
802.722371670606	0.19333333333333327	1.2324000000000002	1.1
801.3874692235079	0.1940666666666666	1.1598666666666668	1.1
801.3875118239487	0.18513333333333326	1.082266666666667	1.1
801.3875118239487	0.19003333333333328	1.0812	1.1
801.2813041053107	0.1816666666666666	1.1417333333333335	1.1
801.1892963682465	0.1846666666666666	1.1598666666666668	1.1
801.1937737470204	0.1846666666666666	1.16	1.1
801.1937737470204	0.19313333333333327	1.0984	1.1
801.0998522282424	0.18893333333333326	1.0984	1.1
801.1015095516549	0.17903333333333327	1.0533333333333332	1.1
800.9040406373422	0.18139999999999992	1.0616	1.1
800.9040406373422	0.18313333333333326	1.0969333333333335	1.1
800.8101732261468	0.17989999999999992	1.1538666666666668	1.1
800.623867030741	0.19339999999999993	1.16	1.1
800.336819295091	0.1776666666666666	1.0933333333333333	1.1
800.336819295091	0.18223333333333327	1.0802666666666667	1.1
800.3408741747131	0.1762666666666666	1.0654666666666666	1.1
