wavelength(nm)	flourescence PMT(V)	ti_saph Power (V)	Gain (V)
750.2401567755127	0.4089666666666666	3.9647999999999994	1.0
750.2401567755127	0.4244333333333333	3.975333333333334	1.0
750.3208047111615	0.4255999999999999	3.9956	1.0
750.3208047111615	0.4206333333333333	4.1441333333333334	1.0
750.3208047111615	0.42326666666666657	4.017066666666667	1.0
751.0684719045727	0.4331999999999999	4.218666666666667	1.0
751.0684719045727	0.4331999999999999	4.348133333333334	1.0
751.0704050093037	0.4417	4.348133333333334	1.0
751.0704050093037	0.44059999999999994	4.375866666666667	1.0
751.4028005308493	0.43259999999999993	4.173733333333333	1.0
751.4028005308493	0.42273333333333324	4.067333333333333	1.0
751.4028005308493	0.4034666666666666	3.915333333333333	1.0
751.7363938975791	0.4473666666666667	4.4206666666666665	1.0
751.7363938975791	0.4569	4.486533333333333	1.0
751.7363938975791	0.4521999999999999	4.6011999999999995	1.0
751.7363938975791	0.4569333333333333	4.673466666666667	1.0
751.7363938975791	0.45373333333333327	4.5816	1.0
752.4887128432097	0.45373333333333327	4.077066666666668	1.0
752.4887128432097	0.41539999999999994	4.048400000000001	1.0
752.9058765134607	0.40806666666666663	4.048400000000001	1.0
752.9058765134607	0.41386666666666655	4.187066666666667	1.0
752.9058765134607	0.40813333333333324	4.146133333333334	1.0
753.1623292659257	0.38999999999999996	4.154	1.0
753.1623292659257	0.3970333333333333	4.0283999999999995	1.0
753.5802301985863	0.42303333333333326	4.388933333333334	1.0
753.5802301985863	0.4347333333333332	4.344800000000001	1.0
753.5796826252944	0.4331999999999999	4.284	1.0
753.5796826252944	0.40546666666666664	4.157866666666666	1.0
753.5796826252944	0.40546666666666664	4.3208	1.0
753.9975450499352	0.41093333333333326	4.4416	1.0
753.9975450499352	0.4308666666666666	4.4416	1.0
753.9975450499352	0.41989999999999994	4.44	1.0
753.9975450499352	0.4012666666666666	4.113866666666667	1.0
753.9975450499352	0.38163333333333327	3.8773333333333326	1.0
754.6740125486077	0.3858666666666666	3.897733333333334	1.0
754.6740125486077	0.39933333333333326	4.096933333333334	1.0
755.008355832953	0.4076999999999999	4.284933333333333	1.0
755.008355832953	0.4197333333333333	4.408	1.0
755.432111901456	0.38923333333333326	4.0216	1.0
755.432111901456	0.3925666666666666	3.941733333333333	1.0
755.432111901456	0.3925666666666666	4.0452	1.0
756.1094232164307	0.3813	4.032933333333333	1.0
756.1094232164307	0.3798666666666666	4.032933333333333	1.0
756.109342563475	0.38049999999999995	4.0548	1.0
756.109342563475	0.4030999999999999	4.261333333333334	1.0
756.109342563475	0.4088666666666666	4.433600000000001	1.0
756.4483189477629	0.4148666666666666	4.358533333333333	1.0
756.4483189477629	0.3902666666666666	4.226133333333334	1.0
756.5288867175949	0.38463333333333327	4.168266666666667	1.0
756.5288867175949	0.3866333333333333	4.122000000000001	1.0
756.5288867175949	0.38343333333333324	4.0170666666666675	1.0
756.8681986668204	0.38819999999999993	4.278666666666668	1.0
756.8681986668204	0.38819999999999993	4.387333333333334	1.0
756.9514293106567	0.417	4.3352	1.0
756.9514293106567	0.39999999999999997	4.3352	1.0
757.2079433826262	0.3916333333333333	4.1664	1.0
757.2079433826262	0.3907999999999999	4.061866666666667	1.0
757.2079433826262	0.38099999999999995	4.036933333333334	1.0
757.2079433826262	0.3641666666666666	3.9319999999999995	1.0
757.2079433826262	0.37849999999999995	4.120266666666667	1.0
757.2079433826262	0.4196999999999999	4.484	1.0
757.2079433826262	0.4125	4.501333333333334	1.0
757.2079433826262	0.4157666666666666	4.461333333333334	1.0
757.7111287721257	0.3925666666666666	4.315466666666667	1.0
757.7111287721257	0.3925666666666666	4.311466666666667	1.0
757.3690135990988	0.38133333333333325	4.311466666666667	1.0
757.3690135990988	0.4059333333333333	4.435733333333334	1.0
757.3690135990988	0.3978666666666666	4.5448	1.0
758.0526091522605	0.4150666666666666	4.602133333333334	1.0
758.0526091522605	0.4068666666666666	4.562133333333333	1.0
762.0685220760712	0.3932999999999999	4.507066666666666	1.0
762.0685220760712	0.39319999999999994	4.512933333333334	1.0
762.1500702370586	0.4121666666666666	4.680666666666667	1.0
762.1500702370586	0.4184999999999999	4.7001333333333335	1.0
762.1500702370586	0.4043666666666666	4.6778666666666675	1.0
762.1492665033298	0.4070666666666666	4.6676	1.0
762.1492665033298	0.4070666666666666	4.554666666666667	1.0
762.1515786209764	0.38036666666666663	4.532133333333333	1.0
762.1515786209764	0.40229999999999994	4.532133333333333	1.0
762.1515786209764	0.36939999999999995	4.280666666666667	1.0
762.8383755483624	0.3704666666666666	4.2056000000000004	1.0
762.8383755483624	0.3847666666666666	4.475466666666668	1.0
762.8383303542229	0.3976999999999999	4.609733333333334	1.0
762.8383303542229	0.39603333333333324	4.6192	1.0
762.8375740865248	0.40109999999999996	4.642133333333334	1.0
762.8375740865248	0.3947666666666666	4.6782666666666675	1.0
762.8375740865248	0.4032666666666666	4.757733333333334	1.0
763.958213756136	0.4083333333333332	4.805866666666667	1.0
763.958213756136	0.4083333333333332	4.8768	1.0
763.9590450116436	0.41893333333333327	5.0796	1.0
763.9590450116436	0.4299999999999999	5.0796	1.0
763.9590450116436	0.42523333333333324	5.079066666666667	1.0
763.9618621099968	0.41623333333333323	5.074	1.0
763.9618621099968	0.4292999999999999	5.079333333333334	1.0
764.3897389662949	0.4078666666666666	4.899866666666667	1.0
764.3897389662949	0.38673333333333326	4.658	1.0
764.4726675473772	0.38423333333333326	4.526800000000001	1.0
764.4726675473772	0.42413333333333325	5.1724	1.0
764.4726675473772	0.4475333333333333	5.421733333333333	1.0
764.9073047686541	0.4418333333333333	5.478533333333334	1.0
764.9073047686541	0.4418333333333333	5.479466666666667	1.0
765.3352358075614	0.4523999999999999	5.425733333333333	1.0
765.3352358075614	0.4469999999999999	5.425733333333333	1.0
765.3352358075614	0.4174999999999999	4.900533333333333	1.0
765.5152077705827	0.38786666666666664	4.673333333333334	1.0
765.5152077705827	0.38633333333333325	4.652400000000001	1.0
765.8617431962962	0.3813999999999999	4.533333333333333	1.0
765.8617431962962	0.4074666666666666	4.9144000000000005	1.0
765.9454445703334	0.41323333333333323	4.987733333333333	1.0
765.9454445703334	0.38819999999999993	4.7348	1.0
765.9454445703334	0.3830666666666666	4.588133333333333	1.0
766.0308502904356	0.3780333333333332	4.550133333333333	1.0
766.0308502904356	0.3780333333333332	4.476133333333333	1.0
767.0753395851524	0.3671333333333333	4.476133333333333	1.0
767.0753395851524	0.40219999999999995	4.9204	1.0
767.0753395851524	0.4293666666666667	5.3336	1.0
767.0753395851524	0.44139999999999996	5.468	1.0
767.0753395851524	0.42516666666666664	5.475066666666667	1.0
767.5096746560268	0.4376333333333332	5.5516	1.0
767.5096746560268	0.4419999999999999	5.574266666666666	1.0
767.5096746560268	0.44053333333333333	5.615999999999999	1.0
767.5096746560268	0.43033333333333323	5.401866666666667	1.0
767.5096746560268	0.41389999999999993	5.212533333333333	1.0
767.5096746560268	0.41389999999999993	5.2871999999999995	1.0
767.5096746560268	0.4274666666666666	5.269066666666666	1.0
768.6418236753583	0.42029999999999995	5.269066666666666	1.0
768.6418236753583	0.3940333333333333	4.9479999999999995	1.0
768.6418236753583	0.3770333333333332	4.774400000000001	1.0
768.9917764529399	0.3795666666666666	4.730666666666667	1.0
768.9917764529399	0.4086999999999999	5.189333333333334	1.0
769.078056896584	0.4127333333333333	5.2165333333333335	1.0
769.078056896584	0.3973333333333333	5.0	1.0
769.0755644002398	0.3831333333333332	4.953333333333333	1.0
769.0755644002398	0.38853333333333323	4.9604	1.0
769.0755644002398	0.3671999999999999	4.627466666666667	1.0
769.4274742889132	0.3671999999999999	5.249733333333333	1.0
769.4274742889132	0.40083333333333326	5.337066666666666	1.0
770.2146892589013	0.4172666666666666	5.337066666666666	1.0
770.2146892589013	0.39219999999999994	5.100666666666666	1.0
770.2146892589013	0.4093666666666666	5.273999999999999	1.0
770.5696261905033	0.40166666666666656	5.2184	1.0
770.5696261905033	0.41479999999999995	5.341333333333334	1.0
770.6062612318289	0.39566666666666656	5.156666666666666	1.0
770.6062612318289	0.3992333333333333	4.952133333333333	1.0
770.6062612318289	0.36776666666666663	4.820533333333334	1.0
771.3584670181382	0.3981666666666666	5.134266666666667	1.0
771.3584670181382	0.3923999999999999	5.036133333333334	1.0
771.7110815524694	0.3923999999999999	4.721066666666667	1.0
771.7110815524694	0.36106666666666665	4.730800000000001	1.0
772.0638968937011	0.3639333333333333	4.730800000000001	1.0
772.0638968937011	0.4116999999999999	5.3364	1.0
772.0638968937011	0.3913666666666666	5.253733333333333	1.0
772.1491825094764	0.38169999999999993	4.9844	1.0
772.1491825094764	0.38673333333333326	4.957466666666666	1.0
772.4207165310709	0.38039999999999996	4.9901333333333335	1.0
772.4207165310709	0.36929999999999996	4.779333333333334	1.0
772.4207165310709	0.39783333333333326	5.2032	1.0
773.2976844145195	0.40653333333333325	5.3668	1.0
773.2976844145195	0.38559999999999994	5.2216000000000005	1.0
773.6522093446855	0.38559999999999994	5.044133333333334	1.0
773.6522093446855	0.3852	4.9530666666666665	1.0
773.6522093446855	0.39493333333333325	4.9530666666666665	1.0
774.0938360123664	0.38423333333333326	4.987066666666666	1.0
774.0938360123664	0.38009999999999994	4.9736	1.0
774.3620706870763	0.3951666666666666	5.05	1.0
774.3620706870763	0.3911333333333333	5.132666666666667	1.0
774.8916719508185	0.38299999999999995	5.021866666666667	1.0
774.8916719508185	0.3795	5.042133333333334	1.0
774.8916719508185	0.4025999999999999	5.262266666666666	1.0
775.1636645176517	0.42513333333333325	5.678133333333333	1.0
775.1636645176517	0.42919999999999997	5.8041333333333345	1.0
775.1595134965239	0.42919999999999997	5.748666666666667	1.0
775.1595134965239	0.4265999999999999	5.748666666666667	1.0
775.2481093482538	0.3978666666666666	5.268933333333333	1.0
775.2481093482538	0.4000999999999999	5.2401333333333335	1.0
775.6039524920154	0.39909999999999995	5.290933333333333	1.0
775.6039524920154	0.38383333333333325	4.947866666666667	1.0
775.6039524920154	0.38053333333333333	4.979866666666667	1.0
776.4052121795894	0.42043333333333327	5.633466666666666	1.0
776.4052121795894	0.42176666666666657	5.616799999999999	1.0
776.6774758824537	0.4067333333333333	5.525999999999999	1.0
776.6774758824537	0.3974	5.186000000000001	1.0
776.7658939884401	0.3974	5.220666666666666	1.0
776.7658939884401	0.40279999999999994	5.330933333333334	1.0
776.7658939884401	0.4097999999999999	5.330933333333334	1.0
777.0369188167446	0.44873333333333326	6.1284	1.0
777.0369188167446	0.44016666666666654	5.968133333333333	1.0
777.393661203984	0.40359999999999996	5.369466666666667	1.0
777.393661203984	0.42439999999999994	5.666933333333333	1.0
777.9257611944182	0.41243333333333326	5.431066666666667	1.0
777.9257611944182	0.4036666666666667	5.363466666666667	1.0
777.9257611944182	0.42096666666666654	5.4472	1.0
778.2849893772853	0.4318333333333333	5.817333333333333	1.0
778.2849893772853	0.4429	5.882	1.0
778.372696264654	0.4429	5.836666666666667	1.0
778.372696264654	0.44393333333333335	5.836666666666667	1.0
778.5574517455408	0.41713333333333324	5.5652	1.0
778.5574517455408	0.4244333333333333	5.613733333333333	1.0
778.6460972071328	0.4162666666666667	5.544	1.0
778.6460972071328	0.41679999999999995	5.4292	1.0
778.6460972071328	0.4186666666666666	5.447066666666666	1.0
779.7279398438999	0.44096666666666656	5.79	1.0
779.7279398438999	0.4034333333333333	5.351866666666666	1.0
779.9017623893599	0.40853333333333325	5.335999999999999	1.0
779.9017623893599	0.435	5.613066666666666	1.0
779.8419898370037	0.435	5.693066666666667	1.0
779.8419898370037	0.4346666666666666	5.760533333333333	1.0
779.8419898370037	0.44366666666666665	5.760533333333333	1.0
781.0709051562629	0.4198999999999999	5.489733333333334	1.0
781.0709051562629	0.4321999999999999	5.5418666666666665	1.0
781.3494340695946	0.45916666666666656	5.874266666666666	1.0
781.3494340695946	0.46803333333333325	6.328533333333334	1.0
781.4324112661724	0.4675333333333333	6.0748	1.0
781.4324112661724	0.4523	5.887599999999999	1.0
781.4324112661724	0.44889999999999985	5.7192	1.0
781.5227649384158	0.4414999999999999	5.579199999999999	1.0
781.5227649384158	0.44599999999999995	5.648533333333333	1.0
781.7960888555701	0.44599999999999995	5.526266666666666	1.0
781.7960888555701	0.43533333333333324	5.374666666666666	1.0
782.885629547247	0.4249333333333333	5.374666666666666	1.0
782.885629547247	0.43916666666666665	5.6152	1.0
782.9753757296688	0.4317	5.377066666666666	1.0
782.9753757296688	0.43583333333333324	5.432799999999999	1.0
782.9753757296688	0.46933333333333327	5.908933333333333	1.0
782.9753757296688	0.5161333333333332	6.4476	1.0
782.9753757296688	0.5160999999999999	6.501200000000001	1.0
783.8796449409652	0.49139999999999984	5.973599999999999	1.0
783.8796449409652	0.47613333333333324	5.929333333333333	1.0
784.5228058380111	0.47613333333333324	5.643999999999998	1.0
784.5228058380111	0.4665666666666666	5.876266666666666	1.0
784.5228058380111	0.47603333333333325	5.876266666666666	1.0
784.5195497149173	0.5211666666666666	6.5168	1.0
784.5195497149173	0.5242333333333332	6.425466666666668	1.0
784.6075996242181	0.5038666666666666	6.153066666666667	1.0
784.6075996242181	0.49826666666666664	6.04	1.0
784.8889242850912	0.49696666666666656	6.013466666666667	1.0
784.8889242850912	0.4957666666666665	5.9604	1.0
784.8889242850912	0.48616666666666664	5.852799999999999	1.0
784.8838517127261	0.4678333333333332	5.792533333333334	1.0
784.8838517127261	0.46383333333333326	5.722000000000001	1.0
784.9747121599845	0.46383333333333326	5.72	1.0
784.9747121599845	0.47086666666666666	6.0148	1.0
786.0713050353609	0.5070333333333332	6.0148	1.0
786.0713050353609	0.5215333333333333	6.132133333333334	1.0
786.1589496704293	0.4977333333333332	5.8773333333333335	1.0
786.1589496704293	0.4920666666666666	5.7001333333333335	1.0
786.1589496704293	0.4815	5.485733333333333	1.0
786.5275429240952	0.5314	6.1513333333333335	1.0
786.5275429240952	0.5599666666666666	6.536666666666667	1.0
787.3522360181295	0.5425333333333333	5.830666666666666	1.0
787.3522360181295	0.5095666666666667	5.559733333333333	1.0
787.3522360181295	0.5412333333333332	5.752266666666667	1.0
787.3522360181295	0.5412333333333332	6.030799999999999	1.0
787.3522360181295	0.5514	6.030799999999999	1.0
787.8087726957679	0.6063999999999998	6.597600000000001	1.0
787.8087726957679	0.5848666666666666	6.305866666666667	1.0
788.0000353161677	0.5634999999999999	6.066666666666666	1.0
788.0000353161677	0.5892999999999999	6.1552	1.0
788.1284220430646	0.5823	6.176266666666667	1.0
788.1284220430646	0.5787666666666667	6.006	1.0
788.1284220430646	0.5326666666666666	5.699866666666667	1.0
788.1760676785568	0.5934999999999999	6.161466666666667	1.0
788.1760676785568	0.6118999999999999	6.5296	1.0
789.2856145400858	0.6118999999999999	6.0004	1.0
789.2856145400858	0.6160333333333332	5.8824	1.0
789.2862873609884	0.6135999999999999	5.8824	1.0
789.2862873609884	0.6228333333333332	5.968666666666667	1.0
789.6569875413236	0.7002666666666666	6.567466666666667	1.0
789.6569875413236	0.7404666666666666	6.859066666666666	1.0
789.6569875413236	0.7964666666666665	6.531866666666668	1.0
787.7208515701533	0.5788333333333333	6.129733333333333	1.0
787.7208515701533	0.5763999999999999	6.248266666666667	1.0
787.7208515701533	0.5878999999999999	6.436400000000001	1.0
787.7208515701533	0.5789	6.2412	1.0
787.3501391904572	0.5073666666666666	5.6852	1.0
787.3501391904572	0.5102666666666666	5.634933333333332	1.0
786.9821548234693	0.5132999999999999	5.907066666666666	1.0
786.9821548234693	0.5743666666666666	6.661066666666668	1.0
786.2518094857728	0.5743666666666666	6.614133333333333	1.0
786.2518094857728	0.5547333333333332	6.4333333333333345	1.0
786.2518094857728	0.5407333333333333	6.4333333333333345	1.0
786.0713314471324	0.5141333333333332	6.102133333333333	1.0
786.0713314471324	0.5380666666666666	6.380266666666668	1.0
784.9757127034227	0.5324333333333332	6.2354666666666665	1.0
784.9757127034227	0.4671333333333333	5.75	1.0
784.8856755221796	0.4699666666666666	5.7088	1.0
784.8856755221796	0.4881999999999999	5.924666666666665	1.0
784.8850051942569	0.4992666666666666	5.981333333333334	1.0
784.8850051942569	0.5004666666666666	6.036266666666667	1.0
784.8850051942569	0.5004666666666666	6.174533333333334	1.0
784.6099535975716	0.49533333333333324	6.298266666666667	1.0
784.6099535975716	0.5082	6.298266666666667	1.0
784.6099535975716	0.5135	6.277733333333333	1.0
784.6099535975716	0.5013	6.104666666666667	1.0
784.6099535975716	0.48919999999999997	5.945999999999999	1.0
784.6099535975716	0.4571666666666666	5.590266666666666	1.0
784.6099535975716	0.4601999999999999	5.7241333333333335	1.0
783.7905710058958	0.4645333333333332	5.836666666666667	1.0
783.7905710058958	0.4727333333333333	5.889466666666666	1.0
783.3384696516255	0.5167666666666667	6.420400000000001	1.0
783.3384696516255	0.5052333333333332	6.2228	1.0
782.976318705351	0.5052333333333332	5.5108	1.0
782.976318705351	0.44009999999999994	5.5108	1.0
782.976318705351	0.44439999999999996	5.476933333333334	1.0
782.9728184147848	0.44139999999999985	5.5008	1.0
782.9728184147848	0.46383333333333326	5.7387999999999995	1.0
781.7971689132457	0.42419999999999985	5.517466666666666	1.0
781.7971689132457	0.44326666666666664	5.619333333333333	1.0
781.7091234187214	0.47443333333333326	5.941066666666666	1.0
781.7091234187214	0.47036666666666654	6.042666666666666	1.0
781.5200721346918	0.4635	5.9208	1.0
781.5200721346918	0.4548666666666666	5.830799999999999	1.0
781.5200721346918	0.4548666666666666	5.924266666666667	1.0
781.3464003850291	0.4544333333333333	5.889866666666666	1.0
781.3464003850291	0.4451333333333332	5.889866666666666	1.0
781.3502506181491	0.4256999999999999	5.5385333333333335	1.0
781.3502506181491	0.41839999999999994	5.381866666666666	1.0
781.0733568742492	0.4272333333333333	5.4704	1.0
781.0733568742492	0.44876666666666665	5.763733333333334	1.0
781.0733568742492	0.4472333333333332	5.751200000000001	1.0
780.173258807925	0.43599999999999994	5.5851999999999995	1.0
780.173258807925	0.45626666666666654	5.895199999999999	1.0
779.8981064870483	0.43993333333333323	5.803733333333334	1.0
779.8981064870483	0.4236666666666666	5.587866666666666	1.0
779.8094534987526	0.4236666666666666	5.802933333333334	1.0
779.8094534987526	0.4407999999999999	6.011333333333334	1.0
779.8094534987526	0.4635666666666666	6.011333333333334	1.0
778.7316678673345	0.4049666666666666	5.45	1.0
778.7316678673345	0.41326666666666656	5.5496	1.0
778.5573397490563	0.4430333333333332	5.956133333333334	1.0
778.5573397490563	0.46396666666666664	6.212266666666667	1.0
778.2841043681597	0.44916666666666655	5.960266666666667	1.0
778.2841043681597	0.43060000000000004	5.7784	1.0
778.1125432014907	0.4513	5.972133333333333	1.0
778.1125432014907	0.4302333333333333	5.7412	1.0
778.1125432014907	0.4206666666666666	5.703333333333334	1.0
777.9264474778106	0.4260999999999999	5.708800000000001	1.0
777.9264474778106	0.4260999999999999	5.4644	1.0
777.3965840342635	0.4289333333333333	5.4644	1.0
777.3965840342635	0.4209666666666666	5.4196	1.0
777.0337786304241	0.41743333333333327	5.483333333333333	1.0
777.0337786304241	0.40046666666666664	5.339733333333333	1.0
777.0337786304241	0.39629999999999993	5.155466666666667	1.0
776.7626482401879	0.40643333333333326	5.2216000000000005	1.0
776.7626482401879	0.4037666666666666	5.415866666666666	1.0
776.676205831842	0.4273333333333333	5.641733333333333	1.0
776.676205831842	0.4498	5.887333333333332	1.0
776.4049248976053	0.4628333333333332	5.980266666666666	1.0
776.4049248976053	0.4628333333333332	5.375333333333333	1.0
775.520946783164	0.41176666666666656	5.360399999999999	1.0
775.520946783164	0.4099666666666666	5.360399999999999	1.0
775.520946783164	0.41513333333333324	5.565333333333333	1.0
775.2480311792269	0.4472333333333332	5.892133333333332	1.0
775.2480311792269	0.4421666666666666	5.874666666666665	1.0
775.1632563569796	0.4399999999999999	5.791066666666667	1.0
775.1632563569796	0.3996333333333333	5.418666666666667	1.0
774.891622180908	0.3973999999999999	5.3070666666666675	1.0
774.891622180908	0.3989999999999999	5.135066666666667	1.0
774.891622180908	0.4133666666666666	5.4688	1.0
774.8047793022475	0.4122333333333333	5.4384	1.0
774.8047793022475	0.4122333333333333	4.957866666666667	1.0
774.3628767690395	0.37709999999999994	5.154666666666667	1.0
774.3628767690395	0.39096666666666663	5.154666666666667	1.0
773.6529353810746	0.4126666666666666	5.2708	1.0
773.6529353810746	0.3931333333333332	5.127866666666667	1.0
773.6529353810746	0.39023333333333327	5.106000000000001	1.0
773.29958901566	0.3795	5.0465333333333335	1.0
773.29958901566	0.40033333333333326	5.245733333333333	1.0
772.419695097708	0.3892999999999999	5.039200000000001	1.0
772.419695097708	0.3950666666666666	5.242800000000001	1.0
772.1484316510189	0.43396666666666667	5.607199999999999	1.0
772.1484316510189	0.4350666666666666	5.653333333333332	1.0
772.1481282196581	0.4350666666666666	5.540666666666666	1.0
772.1481282196581	0.4191999999999999	5.206933333333333	1.0
772.1481282196581	0.39536666666666664	5.206933333333333	1.0
771.7111508509638	0.3721666666666666	4.8213333333333335	1.0
771.7111508509638	0.38633333333333325	5.085733333333334	1.0
771.3587994760475	0.4076666666666666	5.2264	1.0
771.3587994760475	0.3677999999999999	4.8084	1.0
770.9192446109877	0.37629999999999997	4.6652	1.0
770.9192446109877	0.41626666666666656	5.289066666666667	1.0
770.9192446109877	0.3994	5.214533333333333	1.0
770.5674873324101	0.41143333333333326	5.166933333333333	1.0
770.5674873324101	0.4039	5.1496	1.0
770.2160968961555	0.4039	4.829733333333333	1.0
770.2160968961555	0.3694333333333333	4.829733333333333	1.0
769.3430861477973	0.3766666666666666	4.882133333333334	1.0
769.3430861477973	0.37533333333333324	4.855733333333333	1.0
769.3430861477973	0.4048333333333333	5.152266666666667	1.0
769.0755742505862	0.4425	5.640266666666666	1.0
769.0755742505862	0.44416666666666665	5.736400000000001	1.0
768.9917002651808	0.4234333333333332	5.400933333333333	1.0
768.9917002651808	0.37023333333333325	4.652933333333333	1.0
768.9926472655891	0.36596666666666666	4.548666666666667	1.0
768.9926472655891	0.39349999999999996	4.932	1.0
768.6426271751114	0.41889999999999994	5.369199999999999	1.0
768.6426271751114	0.41889999999999994	5.343999999999999	1.0
768.6426271751114	0.41619999999999996	5.027333333333334	1.0
768.2101675820168	0.40166666666666656	5.027333333333334	1.0
768.2101675820168	0.3902666666666666	4.839466666666667	1.0
767.7739839777615	0.39296666666666663	4.837333333333333	1.0
767.7739839777615	0.3944666666666666	4.8137333333333325	1.0
767.774117252131	0.3713666666666666	4.690666666666667	1.0
767.774117252131	0.3874999999999999	4.812666666666667	1.0
767.774117252131	0.39683333333333326	5.0656	1.0
767.1583327035038	0.3953999999999999	4.854266666666668	1.0
767.1583327035038	0.3847666666666666	4.757466666666667	1.0
767.1953463079144	0.38406666666666656	4.6841333333333335	1.0
767.1953463079144	0.38406666666666656	4.741866666666667	1.0
766.379170070762	0.37883333333333324	4.6496	1.0
766.379170070762	0.3850999999999999	4.6496	1.0
766.0293840355752	0.42199999999999993	5.215066666666667	1.0
766.0293840355752	0.44106666666666655	5.341066666666667	1.0
766.0293840355752	0.4216666666666667	5.1716	1.0
765.9429139784703	0.4133333333333332	5.022266666666667	1.0
765.9429139784703	0.3903333333333333	4.6692	1.0
765.5149540898278	0.38923333333333326	4.597866666666667	1.0
765.5149540898278	0.43306666666666654	5.24	1.0
765.3354549004252	0.4277999999999999	5.398266666666666	1.0
765.3354549004252	0.4367	5.400133333333333	1.0
765.3354549004252	0.4367	5.282933333333333	1.0
764.9007763351996	0.4346	5.282933333333333	1.0
764.9007763351996	0.4348	5.080800000000001	1.0
764.9048711206697	0.4249333333333333	5.044666666666667	1.0
764.9048711206697	0.4062666666666666	5.0002666666666675	1.0
764.4701368357963	0.4074999999999999	4.912266666666667	1.0
764.4701368357963	0.3879333333333333	4.677333333333333	1.0
764.4701368357963	0.4024666666666666	4.7910666666666675	1.0
764.0456733431442	0.3918666666666666	4.6048	1.0
764.0456733431442	0.3917666666666666	4.553466666666666	1.0
763.9573363762544	0.37813333333333327	4.538266666666667	1.0
763.9573363762544	0.3809333333333333	4.5208	1.0
763.1853022631598	0.3809333333333333	4.575466666666666	1.0
763.1853022631598	0.3907333333333332	4.793466666666666	1.0
763.1867870632444	0.40349999999999997	4.793466666666666	1.0
763.1867870632444	0.39199999999999996	4.532266666666667	1.0
763.1867870632444	0.3629666666666666	4.208266666666667	1.0
762.8382168707077	0.3509999999999999	3.9609333333333323	1.0
762.8382168707077	0.33429999999999993	3.9081333333333337	1.0
762.4147810731989	0.34586666666666666	3.9139999999999993	1.0
762.4147810731989	0.3454	3.9992	1.0
762.2339304733541	0.3907333333333332	4.524266666666667	1.0
762.2339304733541	0.3845333333333333	4.390266666666666	1.0
762.2339304733541	0.3845333333333333	4.012666666666666	1.0
762.150857242685	0.3517666666666666	4.127866666666667	1.0
762.150857242685	0.3678666666666666	4.127866666666667	1.0
762.06867971655	0.3880333333333333	4.4428	1.0
762.06867971655	0.38133333333333325	4.420533333333334	1.0
762.0693390366458	0.37439999999999996	4.356133333333334	1.0
762.0693390366458	0.3821666666666666	4.288266666666667	1.0
762.0693390366458	0.3971333333333333	4.390533333333335	1.0
758.1356497028348	0.3903999999999999	4.381466666666667	1.0
758.1356497028348	0.3858333333333333	4.365600000000001	1.0
758.053236896878	0.3971333333333333	4.357466666666667	1.0
758.053236896878	0.3940333333333333	4.400266666666667	1.0
757.3705255574054	0.3940333333333333	4.540933333333332	1.0
757.3705255574054	0.4147666666666666	4.596666666666667	1.0
757.3713241821895	0.4302333333333332	4.596666666666667	1.0
757.3713241821895	0.4215666666666666	4.614933333333333	1.0
757.3713241821895	0.3827	4.068933333333333	1.0
757.2069799478398	0.37923333333333326	4.09	1.0
757.2069799478398	0.3905666666666666	4.265866666666667	1.0
757.207902059943	0.4208666666666666	4.526400000000001	1.0
757.207902059943	0.43066666666666664	4.6948	1.0
756.9505260332487	0.4294	4.784800000000001	1.0
756.9505260332487	0.42863333333333326	4.617866666666667	1.0
756.9505260332487	0.42863333333333326	4.219600000000001	1.0
756.5289897153053	0.3969999999999999	4.508933333333333	1.0
756.5289897153053	0.42599999999999993	4.508933333333333	1.0
756.4122111103504	0.4231999999999999	4.5448	1.0
756.4122111103504	0.4125666666666666	4.361466666666667	1.0
756.1085866775857	0.38639999999999997	4.1433333333333335	1.0
756.1085866775857	0.4018666666666666	4.2116	1.0
756.1085866775857	0.41353333333333325	4.332133333333334	1.0
755.8495836954356	0.4097333333333333	4.303999999999999	1.0
755.8495836954356	0.40629999999999994	4.31	1.0
755.0927625914452	0.4179999999999999	4.340266666666667	1.0
755.0927625914452	0.40829999999999994	4.1928	1.0
755.0927625914452	0.40829999999999994	4.168666666666667	1.0
755.0927625914452	0.39696666666666663	4.050533333333334	1.0
755.0927625914452	0.39209999999999995	4.050533333333334	1.0
754.4485835497978	0.4064666666666666	3.943466666666666	1.0
754.4485835497978	0.4138666666666666	4.375866666666667	1.0
753.998073080498	0.4415999999999999	4.636666666666667	1.0
753.998073080498	0.4542	4.694000000000001	1.0
753.579722183635	0.43869999999999987	4.4996	1.0
753.579722183635	0.44849999999999995	4.577333333333334	1.0
753.3256357316749	0.4426666666666666	4.6	1.0
753.3256357316749	0.44356666666666655	4.561999999999999	1.0
753.3256357316749	0.42323333333333324	4.180400000000001	1.0
753.1255613421855	0.42323333333333324	4.2168	1.0
753.1255613421855	0.4108333333333333	4.028133333333334	1.0
752.9092115469792	0.3974333333333332	4.028133333333334	1.0
752.9092115469792	0.4329666666666666	4.436000000000001	1.0
752.1543039102735	0.4297999999999999	4.387333333333334	1.0
752.1543039102735	0.41646666666666665	4.188533333333333	1.0
752.1543039102735	0.43413333333333315	4.336400000000001	1.0
752.1551951556631	0.43969999999999987	4.239599999999999	1.0
752.1551951556631	0.41176666666666667	4.139866666666666	1.0
751.7402855919415	0.4276999999999999	4.213333333333333	1.0
751.7402855919415	0.4573	4.528666666666666	1.0
751.4035410396401	0.4573	4.113866666666667	1.0
751.4035410396401	0.4068	3.9919999999999995	1.0
751.4035410396401	0.41803333333333326	3.9919999999999995	1.0
751.069333151048	0.4371	4.3024000000000004	1.0
751.069333151048	0.45296666666666663	4.372933333333335	1.0
750.9880454191223	0.4369333333333333	4.2742666666666675	1.0
750.9880454191223	0.4396	4.204533333333334	1.0
750.7704535364652	0.42079999999999995	4.105066666666667	1.0
750.7704535364652	0.4268333333333333	4.182666666666666	1.0
750.3219571170386	0.4191666666666666	3.9433333333333334	1.0
750.3219571170386	0.40379999999999994	3.9207999999999994	1.0
750.3219571170386	0.43599999999999994	4.037733333333334	1.0
750.2409209515445	0.43599999999999994	4.203333333333333	1.0
750.2409209515445	0.4393333333333332	4.4396	1.0
