wavelength(nm)	flourescence PMT(V)	ti_saph Power (V)	Gain (V)
750.0894170449789	0.46079999999999993	4.295066666666667	1.0
750.0894170449789	0.4705999999999999	4.3464	1.0
750.0894170449789	0.4741333333333333	4.323733333333334	1.0
750.2509511678243	0.47356666666666664	4.304266666666667	1.0
750.2509511678243	0.4477666666666666	4.158	1.0
750.2509511678243	0.4277999999999999	3.8832	1.0
750.5833351580853	0.4727333333333333	4.213333333333333	1.0
750.5833351580853	0.4492	4.062266666666667	1.0
750.5833351580853	0.4315999999999999	3.8796000000000004	1.0
750.918633300127	0.4315999999999999	3.8795999999999995	1.0
750.918633300127	0.4301333333333332	3.8795999999999995	1.0
750.918633300127	0.45319999999999994	4.097466666666667	1.0
750.918633300127	0.4690666666666666	4.366266666666667	1.0
750.918633300127	0.46290000000000003	4.325200000000001	1.0
751.6675777489112	0.4403999999999999	4.0564	1.0
751.6675777489112	0.4416	4.083866666666667	1.0
751.6675777489112	0.4314333333333333	4.004666666666666	1.0
752.0044161408478	0.4223333333333332	3.9751999999999996	1.0
752.0044161408478	0.46109999999999995	4.267600000000001	1.0
752.0044161408478	0.48873333333333324	4.618533333333333	1.0
752.4536196069029	0.48873333333333324	4.710133333333333	1.0
752.4536196069029	0.4826999999999999	4.4694666666666665	1.0
752.4536196069029	0.45616666666666655	4.4694666666666665	1.0
753.089039418726	0.4607999999999998	4.4344	1.0
753.089039418726	0.45389999999999986	4.211333333333334	1.0
753.089039418726	0.4403999999999999	4.1240000000000006	1.0
753.1707352106291	0.4269	4.0465333333333335	1.0
753.1707352106291	0.42873333333333324	4.112133333333333	1.0
753.8453394678277	0.45063333333333333	4.3980000000000015	1.0
753.8453394678277	0.41429999999999995	4.117866666666667	1.0
753.8453394678277	0.4207999999999999	4.028933333333334	1.0
753.9250215810729	0.45429999999999987	4.461733333333334	1.0
753.9250215810729	0.45429999999999987	4.513066666666666	1.0
753.9250215810729	0.4586333333333332	4.503066666666667	1.0
754.1831863282065	0.4550666666666666	4.503066666666667	1.0
754.1831863282065	0.42266666666666663	4.191333333333334	1.0
754.1831863282065	0.4296333333333333	4.147600000000001	1.0
755.018962107561	0.41003333333333325	3.9007999999999994	1.0
755.018962107561	0.40573333333333333	4.085466666666667	1.0
755.018962107561	0.4323333333333333	4.290133333333333	1.0
755.357211960657	0.4208666666666666	4.1284	1.0
755.357211960657	0.43336666666666657	4.272533333333334	1.0
756.1166536847428	0.4321999999999999	4.301466666666667	1.0
756.1166536847428	0.41113333333333324	4.1848	1.0
756.1166536847428	0.41113333333333324	4.114400000000001	1.0
756.1147470082004	0.40903333333333325	4.114400000000001	1.0
756.1147470082004	0.40179999999999993	4.050666666666666	1.0
756.1147470082004	0.4089666666666666	4.1612	1.0
756.4926559512879	0.43849999999999983	4.398666666666666	1.0
756.4926559512879	0.4350333333333333	4.370133333333333	1.0
756.4926559512879	0.4159666666666666	4.220533333333334	1.0
756.7947860437009	0.4168333333333332	4.130266666666667	1.0
756.7947860437009	0.4042333333333333	4.1032	1.0
756.7947860437009	0.4155999999999999	4.1064	1.0
756.8765636109013	0.4122999999999999	4.2904	1.0
756.8765636109013	0.4122999999999999	4.357733333333334	1.0
757.1356269215083	0.4296333333333333	4.3398666666666665	1.0
757.1356269215083	0.4205333333333333	4.3398666666666665	1.0
757.1356269215083	0.4249333333333333	4.357200000000001	1.0
757.135314126153	0.42583333333333323	4.296133333333333	1.0
757.135314126153	0.3994333333333333	4.0936	1.0
757.135314126153	0.3922666666666666	3.9689333333333328	1.0
757.2165726781725	0.3827666666666666	3.9489333333333327	1.0
757.2165726781725	0.39863333333333323	4.082800000000001	1.0
757.2165726781725	0.4353666666666666	4.497466666666667	1.0
757.5548326624875	0.42906666666666654	4.478533333333333	1.0
757.5548326624875	0.42906666666666654	4.659466666666667	1.0
757.5548326624875	0.43656666666666655	4.6876	1.0
757.5562830606979	0.4393333333333333	4.805733333333333	1.0
757.5562830606979	0.4482999999999999	4.805733333333333	1.0
762.0766365998622	0.44923333333333326	4.807066666666667	1.0
762.0766365998622	0.46279999999999993	4.978933333333334	1.0
762.0766365998622	0.45559999999999995	4.972799999999999	1.0
762.0757365377672	0.4480666666666666	4.913733333333333	1.0
762.0757365377672	0.43856666666666666	4.8596	1.0
762.0757365377672	0.4426999999999999	4.9132	1.0
762.0748850700198	0.41363333333333324	4.581333333333333	1.0
762.0748850700198	0.3967666666666666	4.281066666666667	1.0
762.0748850700198	0.37153333333333327	4.024533333333334	1.0
762.4211666605863	0.37153333333333327	4.2016	1.0
762.4211666605863	0.38333333333333325	4.2016	1.0
762.4211666605863	0.4583999999999999	4.9952000000000005	1.0
762.4211666605863	0.4570333333333333	5.16	1.0
762.4211666605863	0.46156666666666657	5.155866666666667	1.0
762.7277998670994	0.4376999999999999	4.907466666666667	1.0
762.7277998670994	0.4238333333333333	4.860666666666666	1.0
762.7277998670994	0.4426999999999999	4.874933333333334	1.0
763.9678362088896	0.44423333333333326	4.9568	1.0
763.9678362088896	0.4453666666666667	4.996266666666667	1.0
763.9678362088896	0.4355666666666666	4.9312	1.0
763.9686384901478	0.4355666666666666	4.958666666666667	1.0
763.9686384901478	0.4456333333333333	4.939866666666667	1.0
763.9686384901478	0.4381333333333333	4.939866666666667	1.0
764.3962545046319	0.4401666666666666	4.944533333333333	1.0
764.3962545046319	0.4295666666666665	4.873066666666667	1.0
764.3971602977964	0.4342	4.9032	1.0
764.3971602977964	0.4260666666666666	4.6632	1.0
764.3971602977964	0.40029999999999993	4.387333333333334	1.0
765.0098176589609	0.4066333333333333	4.626	1.0
765.0098176589609	0.3888	4.316133333333333	1.0
765.0098176589609	0.38113333333333327	4.346400000000001	1.0
765.3545673853671	0.3853999999999999	4.424000000000001	1.0
765.3545673853671	0.3853999999999999	5.072933333333333	1.0
765.3545673853671	0.44219999999999987	5.3806666666666665	1.0
765.3545673853671	0.4595999999999999	5.3806666666666665	1.0
765.3545673853671	0.42896666666666666	4.946666666666666	1.0
765.3545673853671	0.42073333333333324	4.6984	1.0
765.3545673853671	0.40859999999999996	4.752266666666666	1.0
765.3545673853671	0.4374666666666666	4.919733333333332	1.0
765.8710127254313	0.43299999999999994	4.897866666666666	1.0
765.8710127254313	0.4380666666666666	4.972933333333334	1.0
765.8710127254313	0.4270666666666666	4.892799999999999	1.0
766.0442842180593	0.4021999999999999	4.722533333333334	1.0
766.0442842180593	0.40153333333333324	4.6076	1.0
766.0442842180593	0.40153333333333324	4.715866666666668	1.0
766.9172867888561	0.3955666666666666	4.715866666666668	1.0
766.9172867888561	0.4038666666666666	4.7012	1.0
767.345824534001	0.4381999999999999	5.081200000000001	1.0
767.345824534001	0.4130999999999999	4.901199999999999	1.0
767.345824534001	0.39823333333333333	4.5592	1.0
767.7820312094757	0.42833333333333334	4.96	1.0
767.7820312094757	0.44576666666666653	5.2161333333333335	1.0
767.7820312094757	0.4525999999999999	5.2608	1.0
768.1309702130002	0.39289999999999997	4.615600000000001	1.0
768.1309702130002	0.38803333333333323	4.551733333333333	1.0
768.1309702130002	0.38803333333333323	4.674266666666667	1.0
768.5665496891895	0.4004	4.759066666666667	1.0
768.5665496891895	0.4074999999999999	4.759066666666667	1.0
768.5665496891895	0.3993999999999999	4.804666666666667	1.0
768.9190509013912	0.42449999999999993	4.908	1.0
768.9190509013912	0.41953333333333326	5.184266666666667	1.0
768.9182331470234	0.44	5.252133333333333	1.0
768.9182331470234	0.43963333333333326	5.251333333333334	1.0
768.9182331470234	0.4305999999999999	5.1630666666666665	1.0
769.2665397542577	0.432	5.090266666666667	1.0
769.2665397542577	0.43189999999999995	5.159066666666666	1.0
769.2665397542577	0.43189999999999995	5.2034666666666665	1.0
770.1385431376009	0.43413333333333326	5.771733333333334	1.0
770.1385431376009	0.4669666666666666	5.771733333333334	1.0
770.1385431376009	0.4438666666666666	5.463333333333333	1.0
770.4080478283423	0.4398333333333332	5.2444	1.0
770.4080478283423	0.41293333333333326	5.066933333333333	1.0
770.844838992416	0.42273333333333324	4.9684	1.0
770.844838992416	0.4405333333333332	5.432533333333334	1.0
770.844838992416	0.4043999999999999	4.841333333333334	1.0
771.5494902690142	0.4089666666666666	5.091200000000001	1.0
771.5494902690142	0.4323333333333333	5.250666666666666	1.0
771.5494902690142	0.3971666666666666	4.942133333333333	1.0
771.5494902690142	0.3971666666666666	4.8613333333333335	1.0
771.5494902690142	0.4124333333333333	4.8613333333333335	1.0
771.5494902690142	0.4048666666666666	4.9858666666666664	1.0
771.9894313691361	0.4352333333333333	5.379066666666667	1.0
771.9894313691361	0.43576666666666664	5.403466666666667	1.0
771.9894313691361	0.4376999999999999	5.285333333333333	1.0
772.342310463346	0.40789999999999993	5.077066666666668	1.0
772.342310463346	0.40869999999999995	5.0784	1.0
773.489360665967	0.4519333333333333	5.6605333333333325	1.0
773.489360665967	0.4554333333333333	5.706666666666667	1.0
773.489360665967	0.44849999999999995	5.675066666666666	1.0
773.8469679820369	0.44849999999999995	5.359066666666666	1.0
773.8469679820369	0.43043333333333333	5.598800000000001	1.0
773.8469679820369	0.44049999999999995	5.598800000000001	1.0
774.2891267087243	0.43429999999999985	5.470933333333333	1.0
774.2891267087243	0.4309333333333332	5.360266666666666	1.0
774.2891267087243	0.44606666666666667	5.5633333333333335	1.0
774.7291936251845	0.42389999999999994	5.2396	1.0
774.7291936251845	0.39916666666666656	5.109733333333334	1.0
775.0852925024651	0.4124666666666666	5.142799999999999	1.0
775.0852925024651	0.41056666666666664	5.299600000000001	1.0
775.0852925024651	0.4342	5.484533333333333	1.0
775.172252867308	0.43623333333333325	5.505333333333333	1.0
775.172252867308	0.43623333333333325	5.560266666666665	1.0
775.172252867308	0.4326333333333332	5.6096	1.0
775.4428097546678	0.44356666666666666	5.6096	1.0
775.4428097546678	0.4251333333333332	5.386133333333333	1.0
775.4428097546678	0.4222999999999999	5.386533333333333	1.0
775.4428097546678	0.4118666666666666	5.162533333333333	1.0
775.4428097546678	0.4520999999999999	5.726	1.0
776.7038712862712	0.4476666666666666	5.8078666666666665	1.0
776.7038712862712	0.4504666666666666	5.7485333333333335	1.0
776.7038712862712	0.41419999999999996	5.180133333333334	1.0
776.8727823362357	0.4116666666666666	5.274666666666667	1.0
776.8727823362357	0.4262999999999999	5.3448	1.0
776.8727823362357	0.4262999999999999	5.723066666666667	1.0
777.3167283055718	0.4527999999999999	5.723066666666667	1.0
777.3167283055718	0.44843333333333335	5.643733333333333	1.0
777.3167283055718	0.4599999999999999	5.800666666666666	1.0
777.762001435985	0.48323333333333324	6.080666666666667	1.0
777.762001435985	0.4524333333333332	5.809066666666666	1.0
778.1221374559963	0.4321666666666666	5.367466666666666	1.0
778.1221374559963	0.4168333333333333	5.3452	1.0
778.1221374559963	0.43113333333333326	5.549733333333333	1.0
778.4812605274282	0.4700999999999999	5.887333333333332	1.0
778.4812605274282	0.4631666666666666	5.915466666666666	1.0
778.4812605274282	0.4631666666666666	5.924266666666666	1.0
778.5685286225657	0.47323333333333323	5.764933333333333	1.0
778.5685286225657	0.4571	5.764933333333333	1.0
778.5685286225657	0.44333333333333325	5.637999999999999	1.0
779.6505467812647	0.4550666666666666	5.660799999999999	1.0
779.6505467812647	0.4675999999999999	5.839733333333333	1.0
779.6505467812647	0.4523666666666666	5.8318666666666665	1.0
779.6505467812647	0.42619999999999997	5.459333333333333	1.0
779.6505467812647	0.42936666666666656	5.457466666666668	1.0
780.5429076340856	0.44293333333333335	5.618533333333333	1.0
780.5429076340856	0.43866666666666654	5.5738666666666665	1.0
780.5429076340856	0.48636666666666656	6.126533333333334	1.0
781.2680277325275	0.48636666666666656	5.637466666666666	1.0
781.2680277325275	0.46046666666666664	5.4559999999999995	1.0
781.2680277325275	0.44073333333333325	5.4559999999999995	1.0
781.2680207025809	0.43856666666666666	5.276666666666666	1.0
781.2680207025809	0.46396666666666664	5.6044	1.0
781.2680207025809	0.5130666666666666	6.368000000000001	1.0
781.7579634915598	0.5012666666666666	6.171733333333333	1.0
781.7579634915598	0.4715	5.843066666666667	1.0
781.7207235034609	0.45819999999999994	5.562133333333333	1.0
781.7207235034609	0.46386666666666654	5.593999999999999	1.0
781.7207235034609	0.5170666666666666	6.122	1.0
782.897031125914	0.5117999999999999	6.110933333333334	1.0
782.897031125914	0.5117999999999999	5.9724	1.0
782.897031125914	0.49596666666666656	5.9724	1.0
783.1722005067579	0.4800333333333333	5.6332	1.0
783.1722005067579	0.45906666666666657	5.4112	1.0
783.1722005067579	0.4728333333333332	5.580799999999999	1.0
783.7098076531195	0.5060333333333332	5.9372	1.0
783.7098076531195	0.4775666666666666	5.731999999999999	1.0
784.4433069872614	0.5343333333333333	6.0644	1.0
784.4433069872614	0.5118666666666666	5.833733333333333	1.0
784.4433069872614	0.4771333333333333	5.6386666666666665	1.0
784.4407395755569	0.46853333333333325	5.469733333333334	1.0
784.4407395755569	0.46853333333333325	5.493333333333333	1.0
784.4407395755569	0.48363333333333325	6.375733333333335	1.0
784.719645896206	0.535	6.375733333333335	1.0
784.719645896206	0.5482333333333332	6.382133333333335	1.0
784.719645896206	0.5404999999999999	6.2871999999999995	1.0
784.8061220406488	0.5403333333333332	6.2588	1.0
784.8061220406488	0.5331333333333332	6.272266666666666	1.0
784.8990855486314	0.5115333333333333	5.834533333333334	1.0
784.8990855486314	0.49413333333333315	5.559599999999999	1.0
784.8990855486314	0.4995666666666666	5.732933333333334	1.0
785.9922233450725	0.5817666666666665	6.502799999999999	1.0
785.9922233450725	0.5817666666666665	6.446933333333334	1.0
785.9922233450725	0.5805666666666666	6.2504	1.0
786.2735885129596	0.5735333333333332	6.2504	1.0
786.2735885129596	0.5716666666666667	6.234133333333332	1.0
786.2735885129596	0.5523333333333333	6.1036	1.0
787.1862784183136	0.5952333333333332	6.5818666666666665	1.0
787.1862784183136	0.6267666666666666	6.7396	1.0
787.1862784183136	0.6142999999999998	6.526133333333334	1.0
787.5535063239131	0.5510999999999999	5.751333333333334	1.0
787.5535063239131	0.5396999999999998	5.638133333333333	1.0
787.6409445379666	0.57	5.945733333333333	1.0
787.6409445379666	0.6298333333333332	6.509466666666667	1.0
787.6409445379666	0.6298333333333332	6.731733333333334	1.0
787.9235347211506	0.6486	6.731733333333334	1.0
787.9235347211506	0.6099666666666667	6.203866666666667	1.0
787.9235347211506	0.5934666666666666	5.994	1.0
788.0111319827868	0.5864999999999999	6.0268	1.0
788.0111319827868	0.5964999999999999	5.963466666666666	1.0
788.0111319827868	0.5757333333333332	5.933999999999999	1.0
789.2052497855789	0.6596666666666666	6.4224000000000006	1.0
789.2052497855789	0.6880333333333333	6.270933333333333	1.0
789.486745548364	0.6661666666666666	6.04	1.0
789.486745548364	0.6694999999999999	6.040533333333333	1.0
789.486745548364	0.6694999999999999	6.113333333333333	1.0
789.9469537577708	0.6780333333333333	6.113333333333333	1.0
789.9469537577708	0.7606666666666666	6.282800000000001	1.0
789.9469537577708	0.8692999999999999	6.336133333333334	1.0
787.9215296985611	0.5850333333333333	6.6757333333333335	1.0
787.9215296985611	0.6386666666666666	6.6757333333333335	1.0
787.9215296985611	0.6494999999999999	6.772133333333334	1.0
787.6413730023315	0.6067	6.386000000000001	1.0
787.6413730023315	0.5908333333333333	6.152	1.0
787.6413730023315	0.5640333333333333	5.881466666666666	1.0
787.1844090214265	0.5921	6.116133333333334	1.0
787.1844090214265	0.6259999999999999	6.697866666666667	1.0
787.1844090214265	0.5949999999999999	6.578	1.0
786.3595332114569	0.5587333333333333	6.265333333333333	1.0
786.3595332114569	0.5362333333333332	5.952266666666666	1.0
786.3595332114569	0.5362333333333332	6.042666666666666	1.0
786.1234693789766	0.5503666666666666	6.042666666666666	1.0
786.1234693789766	0.5616666666666666	6.270666666666666	1.0
786.1234693789766	0.5611666666666666	6.2472	1.0
784.8957538553732	0.5844666666666666	6.533066666666667	1.0
784.8957538553732	0.5151333333333332	5.916933333333333	1.0
784.8957538553732	0.49776666666666664	5.72	1.0
784.805132072019	0.5009666666666666	5.869866666666667	1.0
784.805132072019	0.5423333333333333	6.2598666666666665	1.0
784.805132072019	0.5565	6.405333333333335	1.0
784.7165763205055	0.5387333333333333	6.3078666666666665	1.0
784.7165763205055	0.5387333333333333	6.204133333333334	1.0
784.7165763205055	0.5349666666666666	6.372266666666667	1.0
784.4415193388056	0.5448666666666666	6.372266666666667	1.0
784.4415193388056	0.5274666666666666	6.2426666666666675	1.0
784.4415193388056	0.5074333333333332	5.871333333333333	1.0
784.3533935028403	0.49599999999999994	5.8248	1.0
784.3533935028403	0.5214666666666665	6.0721333333333325	1.0
784.3533935028403	0.4982999999999999	5.897333333333333	1.0
783.6249789076946	0.4642333333333333	5.552266666666666	1.0
783.6249789076946	0.45886666666666653	5.5292	1.0
783.6249789076946	0.4695666666666666	5.624933333333333	1.0
783.1730604532036	0.47646666666666654	5.718533333333334	1.0
783.1730604532036	0.47646666666666654	6.089333333333332	1.0
783.1730604532036	0.5037999999999999	6.089333333333332	1.0
782.8945439577021	0.5257666666666666	6.305466666666668	1.0
782.8945439577021	0.49549999999999994	6.075333333333333	1.0
782.8945439577021	0.47816666666666663	5.8562666666666665	1.0
781.7188361839004	0.48549999999999993	5.869066666666667	1.0
781.7188361839004	0.484	5.942666666666666	1.0
781.7188361839004	0.49376666666666663	6.114266666666667	1.0
781.6296486364174	0.49633333333333324	6.293733333333333	1.0
781.6296486364174	0.48829999999999985	6.014666666666667	1.0
781.6296486364174	0.49520000000000003	6.096533333333333	1.0
781.2699397282832	0.49520000000000003	5.5904	1.0
781.2699397282832	0.45139999999999997	5.400399999999999	1.0
781.2699397282832	0.4373333333333333	5.400399999999999	1.0
780.9076077036187	0.43879999999999997	5.400133333333333	1.0
780.9076077036187	0.49063333333333325	6.053066666666667	1.0
780.9076077036187	0.4870333333333332	6.01	1.0
780.1841309039419	0.49146666666666666	6.024266666666667	1.0
780.1841309039419	0.46369999999999995	5.7036	1.0
780.1841309039419	0.45036666666666664	5.609333333333333	1.0
779.7349217815956	0.46156666666666657	5.770533333333334	1.0
779.7349217815956	0.48369999999999996	5.992	1.0
779.7349217815956	0.4644666666666666	5.765333333333333	1.0
778.5697737578406	0.4644666666666666	5.965333333333333	1.0
778.5697737578406	0.46373333333333333	5.825066666666666	1.0
778.5697737578406	0.46603333333333335	5.825066666666666	1.0
778.4777932353346	0.46113333333333323	5.8164	1.0
778.4777932353346	0.4547333333333332	5.6210666666666675	1.0
778.4777932353346	0.43403333333333327	5.404266666666667	1.0
778.2082150679446	0.41103333333333325	5.166266666666667	1.0
778.2082150679446	0.4349333333333332	5.377066666666666	1.0
778.2082150679446	0.44939999999999997	5.672533333333334	1.0
777.7618959073027	0.4219666666666666	5.509466666666667	1.0
777.7618959073027	0.4419333333333333	5.641866666666666	1.0
777.7618959073027	0.42579999999999996	5.455466666666666	1.0
777.2798415270432	0.42579999999999996	5.9152	1.0
777.2798415270432	0.46676666666666655	5.9152	1.0
777.2798415270432	0.4271666666666666	5.3	1.0
776.8715573188495	0.42369999999999985	5.346	1.0
776.8715573188495	0.4393333333333333	5.543866666666666	1.0
776.6019142663155	0.4571333333333333	5.826266666666666	1.0
776.6019142663155	0.47886666666666655	6.087600000000001	1.0
776.6019142663155	0.4722666666666665	5.980933333333333	1.0
775.4427149673245	0.43856666666666655	5.294133333333333	1.0
775.4427149673245	0.4302333333333333	5.518266666666666	1.0
775.4427149673245	0.4524333333333333	5.7936	1.0
775.3546837546717	0.4524333333333333	5.844266666666666	1.0
775.3546837546717	0.4532333333333332	5.4989333333333335	1.0
775.3546837546717	0.4418666666666666	5.4989333333333335	1.0
775.08698656352	0.4080999999999999	5.187733333333334	1.0
775.08698656352	0.40093333333333325	4.912	1.0
775.08698656352	0.39156666666666656	4.9008	1.0
775.0001394725621	0.4109999999999999	5.1144	1.0
775.0001394725621	0.44609999999999994	5.635866666666666	1.0
775.0001394725621	0.4370999999999999	5.5986666666666665	1.0
775.0001394725621	0.4281999999999999	5.271066666666666	1.0
775.0001394725621	0.43363333333333326	5.339866666666666	1.0
775.0001394725621	0.4270666666666667	5.3684	1.0
773.9326598939082	0.4270666666666667	5.2856	1.0
773.9326598939082	0.4301666666666666	5.2856	1.0
773.9326598939082	0.40249999999999997	5.040933333333333	1.0
773.4932977866141	0.40779999999999994	5.122399999999999	1.0
773.4932977866141	0.4445333333333333	5.714666666666667	1.0
773.4932977866141	0.4581333333333332	5.8435999999999995	1.0
772.3432166736897	0.40609999999999996	4.984666666666667	1.0
772.3432166736897	0.4569999999999999	5.700933333333333	1.0
772.3432166736897	0.45126666666666654	5.6757333333333335	1.0
772.0731603148542	0.4150666666666666	5.238133333333334	1.0
772.0731603148542	0.4280999999999999	5.280399999999999	1.0
772.0731603148542	0.4280999999999999	4.734133333333333	1.0
771.9032468577624	0.38459999999999994	5.3552	1.0
771.9032468577624	0.4267333333333333	5.3552	1.0
771.9032468577624	0.43309999999999993	5.3668	1.0
771.2844953362531	0.4175333333333333	5.0684	1.0
771.2844953362531	0.37833333333333324	4.6632	1.0
771.2844953362531	0.4278333333333333	5.331200000000001	1.0
770.7575442922745	0.40619999999999995	4.850133333333333	1.0
770.7575442922745	0.4099333333333333	5.0224	1.0
770.7575442922745	0.4276666666666666	5.0892	1.0
770.407807743361	0.4357999999999999	5.3244	1.0
770.407807743361	0.4357999999999999	5.344266666666667	1.0
770.407807743361	0.45106666666666667	4.990533333333333	1.0
769.2672726119187	0.4101666666666666	4.990533333333333	1.0
769.2672726119187	0.4513	5.531733333333333	1.0
769.2672726119187	0.4817999999999999	5.8802666666666665	1.0
769.268147981082	0.4923999999999999	5.880533333333333	1.0
769.268147981082	0.4752666666666666	5.748799999999999	1.0
769.268147981082	0.4465333333333333	5.365333333333333	1.0
768.9188714546875	0.3883666666666666	4.628933333333333	1.0
768.9188714546875	0.38569999999999993	4.564666666666667	1.0
768.9188714546875	0.42886666666666656	5.141733333333334	1.0
768.5666054461052	0.44129999999999997	5.314266666666667	1.0
768.5666054461052	0.44129999999999997	5.3916	1.0
768.5666054461052	0.4583999999999999	5.3916	1.0
768.1318923217092	0.4372666666666666	5.2348	1.0
768.1318923217092	0.4448666666666666	5.2332	1.0
768.1318923217092	0.40153333333333324	4.7871999999999995	1.0
767.6991779064898	0.4203666666666666	4.850666666666667	1.0
767.6991779064898	0.4244666666666666	4.917733333333333	1.0
767.6991779064898	0.42089999999999994	4.896933333333333	1.0
766.9980819052759	0.4062333333333333	4.855066666666667	1.0
766.9980819052759	0.41363333333333324	4.759733333333333	1.0
766.9980819052759	0.4014	4.7645333333333335	1.0
766.3029107367151	0.4014	4.577466666666667	1.0
766.3029107367151	0.40086666666666665	4.896266666666667	1.0
766.3029107367151	0.42869999999999997	4.896266666666667	1.0
765.9571647856452	0.4352999999999999	5.082800000000001	1.0
765.9571647856452	0.4474333333333332	5.235733333333332	1.0
765.9571647856452	0.37923333333333326	4.238133333333334	1.0
765.5218452662986	0.3780666666666666	4.226266666666667	1.0
765.5218452662986	0.4400333333333333	5.162000000000001	1.0
765.5218452662986	0.45359999999999995	5.2219999999999995	1.0
765.5218452662986	0.4258666666666666	4.9530666666666665	1.0
765.5218452662986	0.39809999999999995	4.625866666666667	1.0
765.5218452662986	0.4257666666666665	4.802533333333334	1.0
765.008592053941	0.4257666666666665	4.783333333333333	1.0
765.008592053941	0.4159666666666666	4.866266666666667	1.0
765.008592053941	0.43113333333333326	4.866266666666667	1.0
764.3958006773545	0.40403333333333324	4.6273333333333335	1.0
764.3958006773545	0.40789999999999993	4.6096	1.0
764.3958006773545	0.39893333333333325	4.599600000000001	1.0
764.0519994241009	0.40353333333333324	4.572	1.0
764.0519994241009	0.39579999999999993	4.338933333333332	1.0
764.0519994241009	0.37713333333333326	4.279866666666667	1.0
763.9674875060578	0.37873333333333326	4.2485333333333335	1.0
763.9674875060578	0.3842666666666666	4.2628	1.0
763.9674875060578	0.3842666666666666	4.540133333333333	1.0
763.1946441032882	0.4204333333333333	4.759466666666667	1.0
763.1946441032882	0.4271666666666666	4.759466666666667	1.0
763.1946441032882	0.40829999999999994	4.580133333333333	1.0
762.7644308110335	0.4103666666666666	4.562666666666667	1.0
762.7644308110335	0.40463333333333323	4.535866666666666	1.0
762.7644308110335	0.41113333333333324	4.500533333333333	1.0
762.4226206363977	0.3944666666666666	4.273200000000001	1.0
762.4226206363977	0.40869999999999995	4.5864	1.0
762.4226206363977	0.42143333333333327	4.5712	1.0
762.4186593031969	0.4078333333333333	4.3924	1.0
762.4186593031969	0.3971666666666666	4.277866666666667	1.0
762.4186593031969	0.3971666666666666	4.268533333333334	1.0
762.071896966286	0.3872999999999999	4.266533333333333	1.0
762.071896966286	0.39719999999999994	4.266533333333333	1.0
762.071896966286	0.4001666666666666	4.268000000000001	1.0
762.0755086207826	0.4027666666666666	4.255733333333333	1.0
762.0755086207826	0.39853333333333324	4.2012	1.0
762.0755086207826	0.3997999999999999	4.1912	1.0
757.5568707018721	0.3974666666666666	4.140000000000001	1.0
757.5568707018721	0.3875333333333333	4.0916	1.0
757.5568707018721	0.39583333333333326	4.002666666666666	1.0
757.477830685041	0.39026666666666654	3.9198666666666666	1.0
757.477830685041	0.39026666666666654	3.8943999999999996	1.0
757.477830685041	0.38263333333333327	4.305066666666668	1.0
757.2150023256685	0.41589999999999994	4.305066666666668	1.0
757.2150023256685	0.4369999999999999	4.44	1.0
757.2150023256685	0.4242666666666666	4.439333333333334	1.0
757.1336804447939	0.4277999999999999	4.424133333333334	1.0
757.1336804447939	0.4425999999999999	4.6041333333333325	1.0
757.1336804447939	0.43809999999999993	4.599466666666666	1.0
756.8763728149409	0.41216666666666657	4.219066666666666	1.0
756.8763728149409	0.41203333333333325	4.125600000000001	1.0
756.8763728149409	0.4067333333333333	4.12	1.0
756.5370529948565	0.41046666666666665	4.179333333333334	1.0
756.5370529948565	0.41046666666666665	4.381066666666667	1.0
756.5370529948565	0.4257666666666666	4.1924	1.0
756.3747300529002	0.4148333333333332	4.1924	1.0
756.3747300529002	0.40993333333333326	4.060533333333335	1.0
756.3747300529002	0.41359999999999997	4.1876	1.0
756.0537884721748	0.41053333333333325	4.207866666666667	1.0
756.0537884721748	0.42846666666666655	4.2396	1.0
756.0537884721748	0.4012333333333333	4.121200000000001	1.0
755.3565314115366	0.4199666666666666	4.205733333333333	1.0
755.3565314115366	0.4198333333333333	4.2776000000000005	1.0
755.3565314115366	0.4119999999999999	3.9057333333333335	1.0
754.9036290523616	0.4024999999999999	3.9070666666666662	1.0
754.9036290523616	0.4024999999999999	4.063466666666667	1.0
754.9036290523616	0.42143333333333327	4.23	1.0
754.2612859240036	0.4259333333333333	4.23	1.0
754.2612859240036	0.44136666666666663	4.2932	1.0
754.2612859240036	0.4372	4.394133333333334	1.0
753.9248452874917	0.41896666666666654	4.107333333333333	1.0
753.9248452874917	0.4135666666666666	4.004266666666666	1.0
753.9248452874917	0.4397333333333333	4.282	1.0
753.5057719487659	0.4552333333333333	4.301200000000001	1.0
753.5057719487659	0.4503333333333332	4.388400000000001	1.0
753.5057719487659	0.45313333333333333	4.296266666666666	1.0
753.1698752918128	0.4378999999999999	4.236666666666666	1.0
753.1698752918128	0.4378999999999999	4.193066666666667	1.0
753.1698752918128	0.4306999999999999	4.193066666666667	1.0
753.1698752918128	0.42199999999999993	4.1196	1.0
753.1698752918128	0.4187999999999999	4.077466666666667	1.0
753.1698752918128	0.42419999999999997	4.082400000000001	1.0
752.0828753653458	0.41689999999999994	4.0342666666666664	1.0
752.0828753653458	0.4171333333333333	3.8832	1.0
752.0828753653458	0.43349999999999994	4.057733333333334	1.0
751.6653065338113	0.4366	3.959333333333334	1.0
751.6653065338113	0.4565999999999999	4.369733333333334	1.0
751.6653065338113	0.47183333333333327	4.389333333333334	1.0
751.1692662125091	0.47183333333333327	4.071733333333333	1.0
751.1692662125091	0.4353666666666666	3.907599999999999	1.0
751.1692662125091	0.42833333333333323	3.907599999999999	1.0
750.995860539058	0.4211666666666666	3.8594666666666666	1.0
750.995860539058	0.43389999999999984	4.0	1.0
750.995860539058	0.44683333333333325	4.140533333333334	1.0
750.5844565652251	0.46393333333333325	4.308933333333334	1.0
750.5844565652251	0.4482999999999999	4.134533333333334	1.0
750.5844565652251	0.4527999999999999	4.159866666666667	1.0
750.2496614880642	0.4748333333333333	4.261733333333333	1.0
750.2496614880642	0.4626666666666665	4.22	1.0
750.2496614880642	0.4575666666666666	4.092266666666668	1.0
