wavelength(nm)	flourescence PMT(V)	ti_saph Power (V)	Gain (V)
750.1677218659078	0.4431333333333332	3.989333333333333	1.0
750.1677218659078	0.43883333333333324	4.050666666666666	1.0
750.130865088073	0.46046666666666664	4.188000000000001	1.0
750.130865088073	0.46053333333333324	4.293066666666667	1.0
750.2469564091334	0.4452999999999999	4.054666666666667	1.0
750.2469564091334	0.4461999999999999	4.090666666666667	1.0
750.5805269350407	0.4576333333333332	4.1788	1.0
750.5805269350407	0.4749666666666665	4.462933333333334	1.0
750.5805269350407	0.46619999999999995	4.4144000000000005	1.0
750.5805269350407	0.4578333333333332	4.345466666666667	1.0
750.5805269350407	0.4578333333333332	4.4308000000000005	1.0
750.9944409873362	0.46279999999999993	4.441066666666667	1.0
750.9944409873362	0.47813333333333324	4.441066666666667	1.0
751.3265403245954	0.47449999999999987	4.313066666666667	1.0
751.3265403245954	0.4596	4.297466666666667	1.0
751.3265403245954	0.4529999999999999	4.265866666666667	1.0
751.3265403245954	0.45629999999999993	4.342533333333334	1.0
752.0826412947758	0.4351333333333332	4.144000000000001	1.0
752.0826412947758	0.40916666666666657	3.9902666666666664	1.0
752.3326049708501	0.43283333333333324	3.9848000000000003	1.0
752.3326049708501	0.45433333333333326	4.3841333333333345	1.0
752.7494566352931	0.4771666666666666	4.583733333333333	1.0
752.7494566352931	0.4771666666666666	4.357200000000001	1.0
752.7494566352931	0.4549333333333332	4.289066666666668	1.0
753.1666302241559	0.4427333333333333	4.289066666666668	1.0
753.1666302241559	0.4271333333333333	4.154	1.0
753.1665234413248	0.4256666666666666	4.1193333333333335	1.0
753.1665234413248	0.42353333333333326	4.091066666666667	1.0
753.5040071641173	0.4278333333333333	4.231866666666667	1.0
753.5040071641173	0.45123333333333326	4.431733333333334	1.0
753.9239188286581	0.41919999999999996	4.148000000000001	1.0
753.9239188286581	0.4304666666666666	4.185999999999999	1.0
753.9270638252956	0.4463	4.460800000000001	1.0
753.9270638252956	0.4621999999999999	4.547466666666667	1.0
754.262002822426	0.4621999999999999	4.035466666666667	1.0
754.262002822426	0.41646666666666654	4.035466666666667	1.0
754.262002822426	0.41029999999999994	3.9602666666666666	1.0
754.999801021351	0.414	4.072266666666667	1.0
754.999801021351	0.4180999999999999	4.189466666666667	1.0
755.0211758279435	0.42483333333333323	4.275733333333333	1.0
755.0211758279435	0.42846666666666655	4.3580000000000005	1.0
755.3585106218582	0.40919999999999995	4.1632	1.0
755.3585106218582	0.4135333333333333	4.161333333333333	1.0
755.6945366324969	0.42166666666666663	4.337600000000001	1.0
755.6945366324969	0.4204666666666666	4.2514666666666665	1.0
756.0338118673291	0.4204666666666666	4.2048000000000005	1.0
756.0338118673291	0.41446666666666665	4.066533333333333	1.0
756.0338118673291	0.40386666666666654	4.066533333333333	1.0
756.3738457597053	0.3984333333333333	4.0032000000000005	1.0
756.3738457597053	0.4179333333333332	4.242399999999999	1.0
756.3720934809528	0.4265333333333332	4.396533333333333	1.0
756.3720934809528	0.4197999999999999	4.213866666666666	1.0
756.7921619373733	0.39353333333333324	4.053466666666666	1.0
756.7921619373733	0.39846666666666664	3.972133333333333	1.0
756.8741113233162	0.39893333333333325	4.0004	1.0
756.8741113233162	0.4262666666666666	4.3133333333333335	1.0
757.1335990718097	0.42139999999999994	4.397733333333334	1.0
757.1335990718097	0.42139999999999994	4.420133333333334	1.0
757.1335990718097	0.42533333333333334	4.211866666666666	1.0
757.2132571026782	0.40336666666666665	4.211866666666666	1.0
757.2132571026782	0.3873333333333333	4.062266666666667	1.0
757.2107325543631	0.3912666666666666	4.0132	1.0
757.2107325543631	0.39753333333333324	4.027200000000001	1.0
757.5545452267693	0.3817	4.033600000000001	1.0
757.5545452267693	0.4212666666666667	4.309466666666667	1.0
757.5549210721293	0.43899999999999995	4.570533333333333	1.0
757.5549210721293	0.4452999999999999	4.535066666666667	1.0
757.5904203057154	0.4300666666666666	4.678933333333334	1.0
757.5904203057154	0.4368999999999999	4.724933333333333	1.0
757.5904203057154	0.4368999999999999	4.861199999999999	1.0
757.5904203057154	0.4518333333333332	4.861199999999999	1.0
757.5904203057154	0.4435333333333332	4.9264	1.0
762.0738098184131	0.45336666666666664	4.962933333333334	1.0
762.0738098184131	0.45576666666666654	4.990266666666667	1.0
762.0737817563058	0.4495666666666666	5.0132	1.0
762.0737817563058	0.4498666666666666	5.003866666666667	1.0
762.0738865877476	0.4472333333333333	5.035333333333334	1.0
762.0738865877476	0.43923333333333325	4.833333333333333	1.0
762.0738865877476	0.4082333333333333	4.474666666666667	1.0
762.0738865877476	0.3648666666666666	4.127466666666667	1.0
762.0738865877476	0.3648666666666666	4.1302666666666665	1.0
762.7628382553753	0.37713333333333326	4.6786666666666665	1.0
762.7628382553753	0.4116666666666666	4.6786666666666665	1.0
762.762834424068	0.44179999999999986	5.097600000000001	1.0
762.762834424068	0.45126666666666654	5.131733333333333	1.0
763.9668083582446	0.4301333333333332	4.836666666666667	1.0
763.9668083582446	0.4220999999999999	4.821866666666667	1.0
763.9643900738203	0.4244666666666666	4.8176	1.0
763.9643900738203	0.42283333333333334	4.8484	1.0
763.964486437957	0.44899999999999995	4.964933333333334	1.0
763.964486437957	0.4393333333333333	5.029333333333333	1.0
764.0884366781057	0.4358666666666666	4.919199999999999	1.0
764.0884366781057	0.4358666666666666	4.881066666666667	1.0
764.0884366781057	0.43133333333333324	4.881066666666667	1.0
763.9660057630022	0.42883333333333323	4.885066666666666	1.0
763.9660057630022	0.40609999999999996	4.649733333333334	1.0
764.3966171033331	0.3903	4.386933333333334	1.0
764.3966171033331	0.3756999999999999	4.312133333333334	1.0
764.9146479053696	0.3987666666666666	4.5872	1.0
764.9146479053696	0.4379666666666666	4.989333333333334	1.0
764.9229782151854	0.4276333333333332	4.9050666666666665	1.0
764.9229782151854	0.44566666666666666	5.1764	1.0
765.3550763952383	0.3800333333333333	4.452533333333334	1.0
765.3550763952383	0.45166666666666666	5.137066666666667	1.0
765.3550944948031	0.45166666666666666	4.863333333333333	1.0
765.3550944948031	0.4174666666666666	4.5992	1.0
765.9514316495942	0.3998	4.5992	1.0
765.9514316495942	0.41166666666666657	4.6056	1.0
765.9514316495942	0.40683333333333327	4.8248	1.0
765.9522862207051	0.41303333333333325	4.8416	1.0
765.9522862207051	0.4231666666666666	4.949866666666667	1.0
765.9546556637396	0.43446666666666656	4.9976	1.0
765.9546556637396	0.4268333333333333	4.999066666666667	1.0
766.9989741425799	0.4023999999999999	4.6616	1.0
766.9989741425799	0.39793333333333325	4.661466666666667	1.0
767.0821255392447	0.43626666666666664	5.077866666666667	1.0
767.0821255392447	0.43626666666666664	5.400533333333333	1.0
767.082118328497	0.4468666666666666	5.475733333333334	1.0
767.082118328497	0.46853333333333336	5.475733333333334	1.0
767.6962902664001	0.4296999999999999	5.204666666666667	1.0
767.6962902664001	0.41853333333333326	4.955333333333333	1.0
767.6962902664001	0.4260333333333333	5.146800000000001	1.0
767.7811169886745	0.45586666666666664	5.3486666666666665	1.0
767.7811169886745	0.4349666666666666	5.186800000000001	1.0
768.2139437808163	0.39533333333333326	4.6812000000000005	1.0
768.2139437808163	0.4349333333333332	5.2965333333333335	1.0
768.5659549512285	0.4214666666666666	5.016266666666667	1.0
768.5659549512285	0.40616666666666656	4.809733333333334	1.0
768.5659549512285	0.40616666666666656	4.761866666666666	1.0
768.5659549512285	0.40403333333333324	4.710266666666667	1.0
769.0010797393047	0.39723333333333327	4.710266666666667	1.0
769.0010797393047	0.4183666666666666	4.942266666666667	1.0
769.0019883838919	0.43359999999999993	5.168266666666667	1.0
769.0019883838919	0.43320000000000003	5.167866666666667	1.0
769.2688972718688	0.4278666666666665	5.239866666666667	1.0
769.2688972718688	0.4299999999999999	5.2387999999999995	1.0
769.2688972718688	0.4324666666666666	5.205333333333333	1.0
770.138903304728	0.4521666666666666	5.506666666666666	1.0
770.138903304728	0.46403333333333324	5.8796	1.0
770.4052814445804	0.4561999999999999	5.616666666666666	1.0
770.4052814445804	0.4561999999999999	5.395733333333332	1.0
770.4052935564782	0.43179999999999996	5.4036	1.0
770.4052935564782	0.4345666666666665	5.4036	1.0
770.841042733476	0.4431333333333332	5.532933333333333	1.0
770.841042733476	0.45599999999999985	5.5797333333333325	1.0
771.278869623985	0.4028333333333333	4.987466666666666	1.0
771.278869623985	0.4119999999999999	5.1884	1.0
771.6321535216238	0.4124666666666666	5.083333333333333	1.0
771.6321535216238	0.3962666666666666	4.9252	1.0
771.6321535216238	0.3866666666666666	4.765200000000001	1.0
771.9852150409574	0.4105999999999999	5.040666666666666	1.0
771.9852150409574	0.4171333333333333	5.319333333333333	1.0
772.0715514136778	0.4171333333333333	5.318266666666667	1.0
772.0715514136778	0.42176666666666657	5.361466666666667	1.0
772.2565131537291	0.43076666666666663	5.361466666666667	1.0
772.2565131537291	0.41469999999999996	5.230133333333333	1.0
773.2184373406259	0.4152333333333333	5.1739999999999995	1.0
773.2184373406259	0.45076666666666665	5.7064	1.0
773.4909000522538	0.4396	5.5436	1.0
773.4909000522538	0.43329999999999996	5.355866666666666	1.0
773.9292036978896	0.4170666666666666	5.084533333333333	1.0
773.9292036978896	0.4578333333333332	5.851333333333333	1.0
773.9292036978896	0.4654333333333332	5.9985333333333335	1.0
773.9292036978896	0.44196666666666656	5.546533333333332	1.0
773.9292036978896	0.44196666666666656	5.6548	1.0
774.7302668915844	0.4454666666666666	5.186	1.0
774.7302668915844	0.4128666666666666	5.186	1.0
775.0841605973338	0.4043999999999999	5.213733333333334	1.0
775.0841605973338	0.39459999999999995	5.063866666666666	1.0
775.1696443258379	0.39529999999999993	4.966133333333333	1.0
775.1696443258379	0.44439999999999996	5.551999999999999	1.0
775.1687131153417	0.4428666666666665	5.6175999999999995	1.0
775.1687131153417	0.4576333333333332	5.667066666666666	1.0
775.4418021839459	0.4332666666666665	5.5588	1.0
775.4418021839459	0.4444999999999999	5.460400000000001	1.0
775.4418021839459	0.4245999999999999	5.475333333333333	1.0
776.3285912106755	0.4245999999999999	5.352133333333333	1.0
776.3285912106755	0.42896666666666655	5.950666666666666	1.0
776.5966699314874	0.4669	5.950666666666666	1.0
776.5966699314874	0.45916666666666656	5.880266666666666	1.0
776.5966478728901	0.46153333333333324	5.8869333333333325	1.0
776.5966478728901	0.45903333333333324	5.840799999999999	1.0
777.0419512115349	0.43396666666666656	5.578799999999999	1.0
777.0419512115349	0.47216666666666657	6.0448	1.0
777.3179992735797	0.49083333333333334	6.307866666666667	1.0
777.3179992735797	0.43913333333333326	5.505866666666666	1.0
777.7589976231776	0.4092666666666666	5.2348	1.0
777.7589976231776	0.4347	5.562799999999999	1.0
777.7589976231776	0.4347	5.6132	1.0
778.1184623440226	0.43439999999999995	5.6132	1.0
778.1184623440226	0.4308666666666666	5.362	1.0
778.2051024589356	0.4248666666666666	5.316	1.0
778.2051024589356	0.4327999999999999	5.3708	1.0
778.2569782145747	0.4454333333333333	5.759200000000001	1.0
778.2569782145747	0.46103333333333335	5.911599999999999	1.0
778.5658607114932	0.4577	5.813066666666665	1.0
778.5658607114932	0.44623333333333326	5.689066666666667	1.0
778.5652695564879	0.44366666666666654	5.536533333333333	1.0
778.5652695564879	0.4353999999999999	5.5012	1.0
779.7350198537493	0.4353999999999999	5.9268	1.0
779.7350198537493	0.46779999999999994	5.9345333333333325	1.0
779.7350198537493	0.4642333333333333	5.9345333333333325	1.0
780.0937990768891	0.44606666666666667	5.5978666666666665	1.0
780.0937990768891	0.43863333333333326	5.4028	1.0
780.5412393479378	0.44123333333333314	5.527733333333333	1.0
780.5412393479378	0.47143333333333326	5.963866666666666	1.0
780.9049343921315	0.5015	6.248666666666666	1.0
780.9049343921315	0.46676666666666655	5.654933333333333	1.0
781.3537543411778	0.43806666666666655	5.2852	1.0
781.3537543411778	0.4840666666666666	6.0472	1.0
781.3565600243558	0.5138666666666666	6.513866666666666	1.0
781.3565600243558	0.5138666666666666	6.5244	1.0
781.6269764501567	0.5148999999999999	6.5244	1.0
781.6269764501567	0.5062333333333332	6.1224	1.0
781.6269764501567	0.48766666666666664	6.1404000000000005	1.0
781.6312626506378	0.4950666666666666	6.1024	1.0
781.6312626506378	0.4765	5.877866666666667	1.0
782.8928409119683	0.4772666666666666	5.748666666666666	1.0
782.8928409119683	0.4873999999999999	5.958666666666667	1.0
783.1670575799319	0.4946333333333333	6.003333333333333	1.0
783.1670575799319	0.4592	5.577066666666666	1.0
783.2570126229891	0.4676666666666666	5.499333333333333	1.0
783.2570126229891	0.4676666666666666	5.615733333333333	1.0
783.6191545469471	0.4749999999999999	5.671466666666666	1.0
783.6191545469471	0.4701999999999999	5.671466666666666	1.0
783.6191545469471	0.48436666666666656	5.6954666666666665	1.0
783.6191545469471	0.5160999999999999	6.056533333333333	1.0
783.6191545469471	0.5146666666666666	6.11	1.0
784.4380671551418	0.4819666666666666	5.565333333333332	1.0
784.4380671551418	0.4754999999999999	5.494400000000001	1.0
784.5290818085848	0.4773999999999999	5.536133333333332	1.0
784.5290818085848	0.49079999999999996	5.866533333333334	1.0
784.8825232382062	0.5273666666666667	6.326933333333333	1.0
784.8825232382062	0.5273666666666667	6.316533333333334	1.0
784.8057647103398	0.5517333333333333	6.348933333333334	1.0
784.8057647103398	0.5494666666666665	6.348933333333334	1.0
784.8942134868048	0.5422666666666666	6.2856	1.0
784.8942134868048	0.5292666666666666	6.2649333333333335	1.0
785.9904587931006	0.4770999999999999	5.625199999999999	1.0
785.9904587931006	0.48453333333333326	5.670666666666666	1.0
785.9904587931006	0.5453999999999999	6.355200000000001	1.0
786.0805759776467	0.5626999999999999	6.4872	1.0
786.0805759776467	0.5338666666666666	6.016933333333333	1.0
786.4456212965475	0.5446333333333333	6.026266666666667	1.0
786.4456212965475	0.5237999999999999	5.926933333333333	1.0
786.4474494474827	0.5237999999999999	6.2728	1.0
786.4474494474827	0.5745333333333332	6.6432	1.0
787.1833308048389	0.6168999999999999	6.6432	1.0
787.1833308048389	0.6156666666666666	6.730933333333334	1.0
787.1833308048389	0.5469999999999999	5.861466666666666	1.0
787.1833308048389	0.5530666666666666	5.875466666666666	1.0
787.6386255387395	0.5679666666666666	5.928133333333332	1.0
787.6386255387395	0.5790333333333333	6.082800000000001	1.0
787.6386255387395	0.6543333333333332	6.747466666666666	1.0
787.9181277271663	0.6484666666666666	6.787733333333333	1.0
787.9181277271663	0.6023	6.2842666666666664	1.0
788.0086817791632	0.5784666666666666	5.962666666666666	1.0
788.0086817791632	0.5784666666666666	5.720666666666667	1.0
788.0986047192554	0.5598	5.720666666666667	1.0
788.0986047192554	0.5517	5.565866666666666	1.0
789.2053844492841	0.5748666666666666	5.720666666666667	1.0
789.2053844492841	0.6664333333333332	6.3104	1.0
789.4864754822348	0.6761333333333333	6.162266666666667	1.0
789.4864754822348	0.6702333333333332	6.141333333333334	1.0
789.6664936021069	0.6825666666666667	6.198266666666667	1.0
789.6664936021069	0.7197999999999999	6.438666666666667	1.0
789.6664936021069	0.7685666666666666	6.246266666666667	1.0
787.6416746071069	0.6333333333333333	6.438133333333334	1.0
787.6416746071069	0.6287666666666667	6.511333333333333	1.0
787.6808839767426	0.5758	5.952	1.0
787.6808839767426	0.5606666666666666	5.909333333333333	1.0
787.6808839767426	0.5837666666666667	5.920266666666665	1.0
787.5516054205539	0.5837666666666667	5.983733333333333	1.0
787.5516054205539	0.5519999999999999	6.334666666666667	1.0
786.7246470905535	0.5862333333333333	6.334666666666667	1.0
786.7246470905535	0.5818666666666665	6.440933333333334	1.0
786.2693064498748	0.5329333333333334	5.974933333333333	1.0
786.2693064498748	0.5526666666666665	6.127466666666667	1.0
786.0813632925898	0.5673333333333332	6.416800000000001	1.0
786.0813632925898	0.5425333333333333	6.264399999999999	1.0
786.414329233014	0.5529999999999999	6.2164	1.0
786.414329233014	0.5247666666666665	6.086266666666667	1.0
784.8956119765239	0.49776666666666664	5.828933333333333	1.0
784.8956119765239	0.5016333333333333	5.8328	1.0
784.8058018135191	0.5016333333333333	5.9996	1.0
784.8058018135191	0.5190666666666666	5.9996	1.0
784.8058018135191	0.5487333333333333	6.4916	1.0
784.8058800611707	0.5525	6.519733333333333	1.0
784.8058800611707	0.5298666666666666	6.196266666666667	1.0
784.5285153070793	0.5235	6.288	1.0
784.5285153070793	0.4877333333333333	5.6784	1.0
784.5285153070793	0.4768333333333333	5.477866666666667	1.0
784.5285153070793	0.47826666666666656	5.478533333333334	1.0
784.0731720747784	0.46636666666666654	5.476000000000001	1.0
784.0731720747784	0.5185333333333333	6.181333333333333	1.0
783.7078145698672	0.5185333333333333	5.7724	1.0
783.7078145698672	0.4828333333333332	5.7724	1.0
783.2573433365848	0.46586666666666665	5.632133333333333	1.0
783.2573433365848	0.4438666666666666	5.325466666666667	1.0
783.2573433365848	0.4616333333333333	5.4216	1.0
781.2692023370413	0.45876666666666666	5.563066666666666	1.0
781.2692023370413	0.45406666666666656	5.6419999999999995	1.0
780.6329935930268	0.4425999999999999	5.467600000000001	1.0
780.6329935930268	0.4581666666666666	5.668933333333333	1.0
780.6329935930268	0.4751999999999999	5.839733333333333	1.0
780.6329935930268	0.4476333333333333	5.560133333333333	1.0
779.7301209094512	0.4456333333333333	5.7077333333333335	1.0
779.7301209094512	0.4855333333333332	6.092666666666667	1.0
779.6412864053693	0.4855333333333332	6.043333333333333	1.0
779.6412864053693	0.46586666666666665	5.958799999999999	1.0
778.567170861798	0.4700333333333333	5.958799999999999	1.0
778.567170861798	0.4863333333333333	6.1816	1.0
778.4752510030139	0.4703333333333332	6.033733333333334	1.0
778.4752510030139	0.4494666666666667	5.713333333333333	1.0
778.4752510030139	0.4589	5.8264000000000005	1.0
778.2054788862267	0.41999999999999993	5.314666666666667	1.0
778.2054788862267	0.4090999999999999	5.177333333333333	1.0
778.1180517177131	0.42146666666666655	5.395066666666666	1.0
778.1180517177131	0.4573666666666666	5.822	1.0
777.7591978189081	0.4376333333333333	5.594933333333333	1.0
777.7591978189081	0.4376333333333333	5.539733333333333	1.0
777.316779340575	0.43049999999999994	5.602799999999999	1.0
777.316779340575	0.4423999999999999	5.602799999999999	1.0
777.0805916160328	0.4498999999999999	5.873066666666666	1.0
777.0805916160328	0.42449999999999993	5.570933333333333	1.0
777.0805916160328	0.42373333333333324	5.414133333333334	1.0
777.0805916160328	0.4379666666666666	5.584133333333333	1.0
777.0805916160328	0.4506333333333332	5.780799999999999	1.0
776.6003213524023	0.4377333333333332	5.882666666666666	1.0
776.6003213524023	0.4598999999999999	5.924266666666667	1.0
776.3286988819876	0.4221666666666666	5.305866666666668	1.0
776.3286988819876	0.4565333333333333	5.950666666666666	1.0
775.4394842890764	0.4565333333333333	6.038666666666667	1.0
775.4394842890764	0.46666666666666656	6.038666666666667	1.0
775.1695079766698	0.46869999999999984	5.8968	1.0
775.1695079766698	0.41939999999999994	5.3355999999999995	1.0
775.0849339702186	0.4163333333333333	5.286266666666667	1.0
775.0849339702186	0.38449999999999995	4.929733333333333	1.0
775.0833052110527	0.37739999999999996	4.7624	1.0
775.0833052110527	0.3943999999999999	4.972133333333334	1.0
775.0833052110527	0.41216666666666657	5.290266666666667	1.0
774.72577272393	0.43623333333333325	5.516399999999999	1.0
774.72577272393	0.4106666666666666	5.306133333333334	1.0
774.2853844853217	0.4223999999999999	5.380133333333333	1.0
774.2853844853217	0.4223999999999999	5.258933333333333	1.0
773.929004871968	0.4201333333333333	5.258933333333333	1.0
773.929004871968	0.3879999999999999	4.9694666666666665	1.0
773.575977260452	0.3944999999999999	4.9132	1.0
773.575977260452	0.4133666666666666	5.228533333333333	1.0
773.2204153784395	0.4136666666666666	5.229733333333333	1.0
773.2204153784395	0.40199999999999997	5.139200000000001	1.0
773.2204153784395	0.40633333333333327	5.106266666666667	1.0
773.2204153784395	0.4274333333333333	5.415066666666666	1.0
773.2204153784395	0.4621666666666666	5.716933333333333	1.0
772.0721702798484	0.4323666666666666	5.351733333333334	1.0
772.0721702798484	0.4323666666666666	4.962933333333333	1.0
771.9888650387662	0.39599999999999996	4.676666666666667	1.0
771.9888650387662	0.3822333333333333	4.676666666666667	1.0
771.6328229611939	0.4024666666666666	4.948133333333334	1.0
771.6328229611939	0.4355333333333332	5.255466666666666	1.0
771.2819128175054	0.4396666666666666	5.3884	1.0
771.2819128175054	0.39003333333333323	4.771199999999999	1.0
770.7557966722932	0.3925666666666666	4.8196	1.0
770.7557966722932	0.4028666666666666	4.8751999999999995	1.0
770.4070645555178	0.40193333333333325	4.9872000000000005	1.0
770.4070645555178	0.41079999999999994	5.013866666666666	1.0
770.4070645555178	0.40379999999999994	5.0451999999999995	1.0
770.4060870809021	0.40379999999999994	5.1605333333333325	1.0
770.4060870809021	0.4205666666666666	4.898666666666666	1.0
769.2664028097172	0.40716666666666657	4.898666666666666	1.0
769.2664028097172	0.4048666666666666	4.910666666666666	1.0
769.2661733806575	0.4628666666666666	5.648666666666666	1.0
769.2661733806575	0.47403333333333325	5.8435999999999995	1.0
769.0007757949943	0.4604999999999999	5.845066666666667	1.0
769.0007757949943	0.4195999999999999	5.1264	1.0
768.8334228068155	0.38859999999999995	4.655866666666667	1.0
768.8334228068155	0.39469999999999994	4.712666666666667	1.0
768.8334228068155	0.4424999999999999	5.3221333333333325	1.0
768.8334228068155	0.43846666666666656	5.355599999999999	1.0
768.8334228068155	0.43846666666666656	5.132933333333334	1.0
768.130148354643	0.42453333333333326	4.825466666666666	1.0
768.130148354643	0.4120666666666666	4.825466666666666	1.0
768.1310705739633	0.4300666666666666	5.031066666666667	1.0
768.1310705739633	0.42266666666666663	4.978000000000001	1.0
767.7009741791379	0.3946333333333333	4.772666666666667	1.0
767.7009741791379	0.42549999999999993	4.9584	1.0
767.434161849693	0.40403333333333324	4.841866666666666	1.0
767.434161849693	0.4097999999999999	4.770133333333333	1.0
767.0805593181387	0.40279999999999994	4.6124	1.0
767.0805593181387	0.3817	4.604266666666668	1.0
765.95300044696	0.40103333333333324	4.6593333333333335	1.0
765.95300044696	0.40103333333333324	4.679200000000001	1.0
765.95300044696	0.40043333333333325	4.623333333333333	1.0
765.953100047759	0.4101999999999999	4.623333333333333	1.0
765.953100047759	0.3992333333333333	4.590133333333333	1.0
765.9511386268134	0.3950666666666666	4.484666666666667	1.0
765.9511386268134	0.3846666666666666	4.4592	1.0
765.5185815953133	0.38076666666666664	4.367866666666667	1.0
765.5185815953133	0.43393333333333334	5.045599999999999	1.0
765.4352359675779	0.44696666666666657	5.250666666666666	1.0
765.4352359675779	0.3998333333333333	4.494666666666667	1.0
765.0071098597874	0.39599999999999996	4.473466666666667	1.0
765.0071098597874	0.39956666666666657	4.6516	1.0
765.0079527768563	0.39956666666666657	4.777466666666666	1.0
765.0079527768563	0.42153333333333326	4.782266666666667	1.0
765.0079527768563	0.4134999999999999	4.782266666666667	1.0
764.7911473030509	0.4215	4.7492	1.0
764.7911473030509	0.42226666666666657	4.7485333333333335	1.0
764.048665061637	0.41116666666666657	4.6624	1.0
764.048665061637	0.40533333333333327	4.542666666666667	1.0
764.048665061637	0.38869999999999993	4.409733333333334	1.0
764.048665061637	0.38369999999999993	4.339733333333333	1.0
763.9674365762887	0.3829333333333333	4.306133333333334	1.0
763.9674365762887	0.3806333333333332	4.301733333333333	1.0
763.966641500756	0.4111666666666666	4.6136	1.0
763.966641500756	0.4111666666666666	4.592666666666666	1.0
762.7633751723946	0.40283333333333327	4.592666666666666	1.0
762.7633751723946	0.40866666666666657	4.590800000000001	1.0
762.7633751723946	0.4149	4.585066666666666	1.0
762.7633213329495	0.4132333333333333	4.5935999999999995	1.0
762.7633213329495	0.39013333333333333	4.4484	1.0
762.4185855141993	0.39546666666666663	4.353333333333334	1.0
762.4185855141993	0.41276666666666656	4.62	1.0
762.0744920561601	0.40079999999999993	4.406000000000001	1.0
762.0744920561601	0.39683333333333326	4.3508000000000004	1.0
762.0744920561601	0.3948666666666666	4.3592	1.0
762.0744920561601	0.3948666666666666	4.350933333333334	1.0
761.7206160275027	0.39119999999999994	4.359333333333335	1.0
761.7206160275027	0.4028666666666666	4.359333333333335	1.0
762.0752600193193	0.4074666666666666	4.310666666666666	1.0
762.0752600193193	0.4065	4.297066666666666	1.0
762.0752600193193	0.3998999999999999	4.268933333333333	1.0
757.6372496047034	0.4057666666666666	4.227733333333334	1.0
757.6372496047034	0.3918	4.1252	1.0
757.5534153334273	0.4000333333333333	4.103866666666667	1.0
757.5534153334273	0.39459999999999995	4.099066666666667	1.0
757.2968609204913	0.3888333333333333	4.047066666666667	1.0
757.2968609204913	0.39373333333333327	4.068666666666667	1.0
757.2133304187666	0.39373333333333327	4.4244	1.0
757.2133304187666	0.42413333333333325	4.459200000000001	1.0
757.1332637590982	0.43636666666666657	4.459200000000001	1.0
757.1332637590982	0.4284333333333332	4.443466666666668	1.0
756.8731084684446	0.44656666666666656	4.567200000000001	1.0
756.8731084684446	0.43033333333333323	4.5225333333333335	1.0
756.8731084684446	0.39573333333333327	4.0404	1.0
756.7943958149575	0.3828	4.008933333333333	1.0
756.7943958149575	0.39829999999999993	4.136133333333333	1.0
756.5351407243841	0.42776666666666663	4.342133333333335	1.0
756.5351407243841	0.4218333333333333	4.3849333333333345	1.0
756.4531714722145	0.4248999999999999	4.356533333333333	1.0
756.4531714722145	0.4248999999999999	4.324	1.0
756.1123422937686	0.3997999999999999	4.218933333333333	1.0
756.1123422937686	0.41063333333333324	4.218933333333333	1.0
756.1129135472577	0.40806666666666663	4.193466666666667	1.0
756.1129135472577	0.4057666666666666	4.186533333333332	1.0
756.1129135472577	0.4117333333333333	4.120533333333334	1.0
755.6944514482246	0.40273333333333333	4.040266666666667	1.0
755.6944514482246	0.4245999999999999	4.298	1.0
754.9375175362085	0.4158333333333333	4.279066666666667	1.0
754.9375175362085	0.4064	4.0532	1.0
754.2617879913125	0.4082333333333333	4.081200000000001	1.0
754.2617879913125	0.43133333333333324	4.23	1.0
754.2617879913125	0.43133333333333324	4.2912	1.0
754.2617879913125	0.43033333333333323	4.411333333333334	1.0
753.9210780394424	0.4374333333333333	4.411333333333334	1.0
753.9210780394424	0.46893333333333326	4.599200000000001	1.0
753.9210780394424	0.42783333333333323	4.136133333333333	1.0
753.8400107825147	0.40816666666666657	3.979733333333333	1.0
753.8400107825147	0.4515333333333333	4.385600000000001	1.0
753.5045980755755	0.42549999999999993	4.324000000000001	1.0
753.5045980755755	0.45309999999999995	4.458933333333334	1.0
753.17015054952	0.4423666666666666	4.301866666666666	1.0
753.17015054952	0.44119999999999987	4.278533333333333	1.0
752.8329658644341	0.44119999999999987	4.219333333333334	1.0
752.8329658644341	0.44349999999999995	4.129066666666666	1.0
752.3342454907411	0.42396666666666655	4.129066666666666	1.0
752.3342454907411	0.4225666666666666	4.052533333333334	1.0
752.3342454907411	0.4190666666666666	4.0308	1.0
752.000204475109	0.4174666666666666	3.980533333333333	1.0
752.000204475109	0.4184999999999999	4.0869333333333335	1.0
751.6631157911206	0.4273666666666666	3.9755999999999996	1.0
751.6631157911206	0.4504333333333333	4.120266666666667	1.0
751.2495319234932	0.46629999999999994	4.376933333333334	1.0
751.2495319234932	0.4515999999999999	4.269733333333334	1.0
750.9976031977592	0.43463333333333326	4.039466666666667	1.0
750.9976031977592	0.43463333333333326	3.896266666666666	1.0
750.9163920458138	0.4250333333333333	4.0596000000000005	1.0
750.9163920458138	0.43713333333333326	4.0596000000000005	1.0
750.5816785920767	0.4348333333333333	4.109333333333334	1.0
750.5816785920767	0.4679999999999999	4.339200000000001	1.0
750.5816785920767	0.4538666666666666	4.2276	1.0
750.2456567194239	0.44213333333333327	4.162533333333334	1.0
750.2456567194239	0.46036666666666654	4.244933333333333	1.0
