wavelength(nm)	flourescence PMT(V)	ti_saph Power (V)	Gain (V)
750.3228788000736	0.4198	3.951333333333333	1.0
750.3228788000736	0.4471666666666666	4.230933333333333	1.0
750.6555002026221	0.44139999999999985	4.347333333333334	1.0
750.6555002026221	0.42829999999999996	4.0696	1.0
750.6555002026221	0.42829999999999996	4.215066666666667	1.0
750.6555002026221	0.4345	4.344400000000001	1.0
750.6555002026221	0.4452333333333332	4.344400000000001	1.0
751.4056587534013	0.45099999999999996	4.355600000000001	1.0
751.4056587534013	0.41553333333333325	4.1419999999999995	1.0
751.4056587534013	0.41046666666666665	3.9867999999999997	1.0
751.7392369971524	0.43323333333333325	4.292666666666667	1.0
751.7392369971524	0.42833333333333334	4.318133333333334	1.0
752.1568516433649	0.41929999999999995	4.208	1.0
752.1568516433649	0.4351	4.312266666666667	1.0
752.1568516433649	0.46643333333333326	4.59	1.0
752.4898756401651	0.4279333333333332	4.264666666666667	1.0
752.4898756401651	0.4279333333333332	4.117466666666667	1.0
753.1649798997734	0.4089666666666666	4.117466666666667	1.0
753.1649798997734	0.41609999999999997	4.141066666666666	1.0
753.1649798997734	0.4059666666666666	4.120133333333333	1.0
753.1630922739461	0.4159666666666666	4.115733333333334	1.0
753.1630922739461	0.4103666666666666	4.117866666666667	1.0
753.581050499021	0.4161999999999999	4.2274666666666665	1.0
753.581050499021	0.4233333333333333	4.2564	1.0
753.581050499021	0.42099999999999993	4.249466666666667	1.0
754.0009835572907	0.41543333333333327	4.324400000000001	1.0
754.0009835572907	0.4211666666666666	4.400666666666668	1.0
754.001030732691	0.4211666666666666	4.428933333333334	1.0
754.001030732691	0.42883333333333323	4.428933333333334	1.0
754.001030732691	0.3944666666666666	4.12	1.0
754.3362117848922	0.3757999999999999	3.867066666666666	1.0
754.3362117848922	0.3799	3.8779999999999997	1.0
755.0134896084388	0.4002666666666666	4.210133333333333	1.0
755.0134896084388	0.4278666666666666	4.399066666666667	1.0
755.0134896084388	0.40779999999999994	4.418400000000002	1.0
755.853786485324	0.4050999999999999	4.154133333333334	1.0
755.853786485324	0.3872333333333333	4.1037333333333335	1.0
756.1113038150299	0.39109999999999995	4.156933333333333	1.0
756.1113038150299	0.39109999999999995	4.0086666666666675	1.0
756.1113038150299	0.3837666666666666	4.0287999999999995	1.0
756.1905205814166	0.38866666666666655	4.0287999999999995	1.0
756.1905205814166	0.3970999999999999	4.247333333333333	1.0
756.5310158508859	0.4157333333333333	4.309733333333334	1.0
756.5310158508859	0.39863333333333323	4.1868	1.0
756.5310158508859	0.3939	4.172533333333333	1.0
756.5305165617043	0.39656666666666657	4.12	1.0
756.5305165617043	0.39119999999999994	4.0127999999999995	1.0
756.8717582243787	0.39469999999999994	4.266533333333333	1.0
756.8717582243787	0.4032333333333333	4.2872	1.0
756.8717582243787	0.4028999999999999	4.401600000000001	1.0
757.2103953701398	0.4028999999999999	4.171866666666666	1.0
757.2103953701398	0.3849999999999999	4.024133333333333	1.0
757.2084230400642	0.38536666666666664	4.024133333333333	1.0
757.2084230400642	0.3713666666666666	4.026666666666666	1.0
757.2084230400642	0.37316666666666665	4.001200000000001	1.0
757.2911270415739	0.35916666666666663	3.84	1.0
757.2911270415739	0.38259999999999994	4.1	1.0
757.6326852790319	0.40196666666666664	4.270266666666666	1.0
757.6326852790319	0.3983666666666666	4.370266666666667	1.0
757.6326852790319	0.4026999999999999	4.370133333333334	1.0
757.9731745032932	0.4078666666666666	4.442533333333334	1.0
757.9731745032932	0.4127333333333333	4.506133333333333	1.0
762.0325075748283	0.4127333333333333	4.458266666666667	1.0
762.0325075748283	0.4038666666666666	4.502133333333334	1.0
762.0325075748283	0.41129999999999994	4.502133333333334	1.0
762.0325075748283	0.3951666666666666	4.415200000000001	1.0
762.0325075748283	0.4146666666666666	4.686533333333333	1.0
762.0682707341405	0.4174666666666666	4.7464	1.0
762.0682707341405	0.4276999999999999	4.822266666666667	1.0
762.0682707341405	0.4271999999999999	4.882933333333333	1.0
762.0696944645888	0.42306666666666665	4.774	1.0
762.0696944645888	0.4002666666666666	4.567733333333333	1.0
762.1484093877863	0.3871666666666666	4.450133333333334	1.0
762.1484093877863	0.3932999999999999	4.4752	1.0
762.1484093877863	0.3932999999999999	4.1975999999999996	1.0
762.1484093877863	0.3664666666666666	4.417866666666667	1.0
762.1484093877863	0.38099999999999995	4.417866666666667	1.0
762.8402125006353	0.4170666666666666	4.806933333333334	1.0
762.8402125006353	0.4152666666666666	4.670133333333333	1.0
762.8402125006353	0.3998999999999999	4.605866666666667	1.0
763.9610509824222	0.4045666666666666	4.681733333333333	1.0
763.9610509824222	0.4129999999999999	4.8304	1.0
763.9619528467209	0.4211	4.927599999999999	1.0
763.9619528467209	0.42369999999999997	5.0002666666666675	1.0
763.9619528467209	0.42629999999999996	5.0098666666666665	1.0
763.9623841180935	0.4256666666666666	5.065600000000001	1.0
763.9623841180935	0.4256666666666666	4.9744	1.0
764.0468689451442	0.42153333333333326	4.959333333333334	1.0
764.0468689451442	0.4196999999999999	4.959333333333334	1.0
764.0468689451442	0.42239999999999994	4.927466666666667	1.0
764.3926523459833	0.3718666666666666	4.429866666666667	1.0
764.3926523459833	0.3741	4.2744	1.0
764.905090113903	0.4060666666666666	4.776	1.0
764.905090113903	0.44316666666666665	5.339199999999999	1.0
764.905118304288	0.4476333333333332	5.4	1.0
764.905118304288	0.4442	5.401199999999999	1.0
764.905118304288	0.44356666666666666	5.274533333333334	1.0
765.4309155771518	0.4150999999999999	5.0952	1.0
765.4309155771518	0.4150999999999999	4.7328	1.0
765.5180695305686	0.4012333333333333	4.7328	1.0
765.5180695305686	0.39149999999999996	4.666666666666667	1.0
765.5180695305686	0.3944666666666666	4.6	1.0
765.5180695305686	0.37259999999999993	4.503066666666667	1.0
765.5180695305686	0.4055999999999999	4.8508000000000004	1.0
765.9488583555953	0.41573333333333323	4.877066666666666	1.0
765.9488583555953	0.4133333333333332	4.987866666666667	1.0
765.9488583555953	0.41356666666666664	4.990799999999999	1.0
765.9464635206979	0.4157666666666666	4.9992	1.0
765.9464635206979	0.4020666666666666	4.749066666666666	1.0
766.9938858745834	0.4020666666666666	4.717866666666667	1.0
766.9938858745834	0.4012333333333333	5.2594666666666665	1.0
766.9938858745834	0.4253666666666666	5.2594666666666665	1.0
767.0759213777538	0.44559999999999994	5.453333333333333	1.0
767.0759213777538	0.4402999999999999	5.4821333333333335	1.0
767.511627312729	0.44366666666666654	5.5172	1.0
767.511627312729	0.40979999999999994	5.0248	1.0
767.511627312729	0.40029999999999993	4.829333333333334	1.0
767.7774859055212	0.4215	5.1419999999999995	1.0
767.7774859055212	0.42193333333333327	5.263599999999999	1.0
768.207599542414	0.3939999999999999	4.872533333333333	1.0
768.207599542414	0.4074999999999999	5.1004000000000005	1.0
768.207599542414	0.4074999999999999	5.266	1.0
768.1716296970357	0.4212666666666666	5.266	1.0
768.1716296970357	0.4032333333333333	5.038133333333334	1.0
768.646996142247	0.3902333333333333	4.912266666666667	1.0
768.646996142247	0.3703666666666666	4.7124	1.0
768.646996142247	0.3867999999999999	4.665333333333334	1.0
768.646996142247	0.39846666666666664	4.9424	1.0
768.646996142247	0.41873333333333324	5.217599999999999	1.0
769.0791336854387	0.41553333333333325	5.1272	1.0
769.0791336854387	0.3925666666666666	4.9193333333333324	1.0
769.0808647092232	0.3977666666666666	4.935333333333333	1.0
769.0808647092232	0.3977666666666666	5.015733333333333	1.0
769.0808647092232	0.3965999999999999	5.057733333333333	1.0
770.1349488226867	0.4141666666666666	5.057733333333333	1.0
770.1349488226867	0.4374333333333333	5.650800000000001	1.0
770.134100893663	0.44103333333333333	5.7812	1.0
770.134100893663	0.44156666666666655	5.633333333333334	1.0
770.134100893663	0.40759999999999996	5.214666666666666	1.0
770.5687040064065	0.4133333333333332	5.229733333333334	1.0
770.5687040064065	0.41446666666666665	5.210533333333333	1.0
770.9251634287858	0.4181333333333333	5.311066666666666	1.0
770.9251634287858	0.4014	5.234666666666667	1.0
770.9251634287858	0.39359999999999995	5.004266666666666	1.0
771.2771681362266	0.39359999999999995	5.106000000000001	1.0
771.2771681362266	0.40459999999999996	5.1376	1.0
771.712175501242	0.3984666666666666	5.1376	1.0
771.712175501242	0.3543333333333333	4.7430666666666665	1.0
771.712175501242	0.3637666666666666	4.665066666666666	1.0
772.0694328805218	0.3834333333333333	4.912133333333333	1.0
772.0694328805218	0.4158999999999999	5.399866666666667	1.0
772.0666832509839	0.41936666666666655	5.4	1.0
772.0666832509839	0.4179666666666666	5.392533333333333	1.0
772.0666832509839	0.39783333333333326	5.167199999999999	1.0
772.4211533256962	0.39126666666666665	5.0061333333333335	1.0
772.4211533256962	0.36346666666666666	4.6950666666666665	1.0
773.3007542893824	0.36346666666666666	5.207599999999999	1.0
773.3007542893824	0.40303333333333324	5.2464	1.0
773.3007542893824	0.40383333333333327	5.2464	1.0
773.6957372210622	0.3975666666666666	5.226666666666667	1.0
773.6957372210622	0.39849999999999997	5.082666666666666	1.0
773.9252749999769	0.41979999999999995	5.593866666666666	1.0
773.9252749999769	0.4211	5.668666666666667	1.0
773.9252749999769	0.40983333333333327	5.382133333333334	1.0
773.9252749999769	0.4156333333333333	5.427333333333334	1.0
773.9252749999769	0.41969999999999996	5.403066666666667	1.0
774.7223332552255	0.39709999999999995	5.246533333333334	1.0
774.7223332552255	0.3945333333333333	5.025733333333333	1.0
775.1639440287337	0.3945333333333333	4.886533333333333	1.0
775.1639440287337	0.37976666666666664	4.886533333333333	1.0
775.1639440287337	0.40669999999999995	5.342133333333333	1.0
775.164914159218	0.43349999999999983	5.7556	1.0
775.164914159218	0.4324999999999999	5.654666666666666	1.0
775.2500165638845	0.4106666666666666	5.393066666666667	1.0
775.2500165638845	0.4055999999999999	5.2156	1.0
775.2500165638845	0.4115999999999999	5.456933333333333	1.0
775.5223004190742	0.40876666666666667	5.520533333333333	1.0
775.5223004190742	0.38573333333333326	5.019466666666667	1.0
776.3234931360734	0.39813333333333334	5.1251999999999995	1.0
776.3234931360734	0.39813333333333334	5.855466666666667	1.0
776.3234931360734	0.4525666666666666	5.654133333333333	1.0
776.6806982143844	0.42353333333333326	5.654133333333333	1.0
776.6806982143844	0.41089999999999993	5.3108	1.0
776.7670637215305	0.3991333333333333	5.186133333333333	1.0
776.7670637215305	0.3919666666666666	5.1164000000000005	1.0
776.7670637215305	0.43633333333333324	5.871599999999999	1.0
777.0400201367173	0.4675	6.056666666666667	1.0
777.0400201367173	0.4263333333333333	5.509600000000001	1.0
777.843329764216	0.41303333333333325	5.497466666666666	1.0
777.843329764216	0.4266	5.560266666666666	1.0
777.843329764216	0.4274333333333332	5.483066666666667	1.0
778.115213372566	0.4274333333333332	5.3384	1.0
778.115213372566	0.4101999999999999	5.5988	1.0
778.2032692010217	0.4298666666666666	5.5988	1.0
778.2032692010217	0.4321666666666666	5.718400000000001	1.0
778.2032692010217	0.4523333333333333	5.884666666666666	1.0
778.3749041936364	0.43906666666666655	5.848800000000001	1.0
778.3749041936364	0.4427999999999999	5.8144	1.0
778.5618227970164	0.43856666666666666	5.849466666666666	1.0
778.5618227970164	0.42349999999999993	5.675466666666667	1.0
778.5618227970164	0.4134999999999999	5.383066666666667	1.0
778.5618227970164	0.4523999999999999	5.816533333333333	1.0
778.5618227970164	0.44156666666666655	5.626933333333333	1.0
779.8173503574787	0.44156666666666655	5.472799999999999	1.0
779.8173503574787	0.4305333333333333	5.544	1.0
780.2638971555497	0.4300999999999999	5.544	1.0
780.2638971555497	0.4556666666666666	5.848	1.0
780.2638971555497	0.4555666666666665	5.877866666666666	1.0
781.0754423305494	0.46886666666666654	6.082133333333334	1.0
781.0754423305494	0.44583333333333336	5.651199999999999	1.0
781.3479669918644	0.4381333333333333	5.553466666666666	1.0
781.3479669918644	0.47093333333333326	5.914133333333333	1.0
781.3479669918644	0.48093333333333327	6.0184	1.0
781.4369503219327	0.44886666666666664	5.8432	1.0
781.4369503219327	0.4524666666666667	5.756266666666667	1.0
781.7099066702467	0.4524666666666667	5.670533333333333	1.0
781.7099066702467	0.4499333333333332	5.670533333333333	1.0
781.7099066702467	0.4521	5.673333333333333	1.0
781.7990309444235	0.4447333333333332	5.643199999999999	1.0
781.7990309444235	0.43839999999999996	5.5691999999999995	1.0
782.9783224088696	0.4582333333333332	5.871066666666667	1.0
782.9783224088696	0.44049999999999995	5.5092	1.0
782.9783224088696	0.4324333333333332	5.365733333333333	1.0
783.3406507331183	0.4556666666666666	5.6088	1.0
783.3406507331183	0.5075	6.251866666666667	1.0
783.3406507331183	0.5082333333333332	6.369066666666668	1.0
783.3406507331183	0.5082333333333332	5.712666666666667	1.0
783.3406507331183	0.4651666666666665	6.2143999999999995	1.0
784.1557231582187	0.5052666666666666	6.2143999999999995	1.0
784.1557231582187	0.47089999999999993	5.809466666666667	1.0
784.5216202894984	0.4743666666666666	5.587199999999998	1.0
784.5216202894984	0.5092666666666665	6.185999999999999	1.0
784.5216202894984	0.5329999999999999	6.446533333333334	1.0
784.5214960004541	0.5420333333333333	6.564266666666668	1.0
784.5214960004541	0.5297	6.444400000000001	1.0
784.5214960004541	0.5138666666666666	6.160933333333333	1.0
784.5214960004541	0.5087666666666667	6.122133333333334	1.0
784.5214960004541	0.49386666666666656	5.836666666666667	1.0
784.8860570086209	0.49386666666666656	5.7649333333333335	1.0
784.8860570086209	0.4872666666666667	5.7649333333333335	1.0
784.9768453360036	0.48626666666666657	5.738133333333334	1.0
784.9768453360036	0.4625999999999999	5.648799999999999	1.0
786.0723161059168	0.48039999999999994	5.729866666666666	1.0
786.0723161059168	0.5314666666666666	6.174666666666667	1.0
786.0723161059168	0.5373666666666665	6.160399999999999	1.0
786.1610259645589	0.49643333333333317	5.6024	1.0
786.1610259645589	0.4643333333333332	5.407333333333333	1.0
786.4443984560661	0.5028666666666666	5.653999999999999	1.0
786.4443984560661	0.5233666666666666	5.927999999999999	1.0
786.4443984560661	0.5233666666666666	6.3844	1.0
787.1789893100668	0.5572333333333332	6.103466666666668	1.0
787.1789893100668	0.5560333333333333	6.103466666666668	1.0
787.6341651957102	0.5226666666666665	5.562133333333333	1.0
787.6341651957102	0.5105333333333332	5.4934666666666665	1.0
787.6341651957102	0.5251333333333332	5.6786666666666665	1.0
787.7234159328981	0.5807666666666667	6.278133333333334	1.0
787.7234159328981	0.6059	6.514666666666665	1.0
788.0030051111393	0.5888333333333332	6.225733333333333	1.0
788.0030051111393	0.5849333333333333	6.183866666666667	1.0
788.0030051111393	0.5616333333333332	5.9516	1.0
788.090930520382	0.5386666666666665	5.766000000000001	1.0
788.090930520382	0.5386666666666665	5.656133333333333	1.0
789.1955764357934	0.5333666666666665	5.831733333333333	1.0
789.1955764357934	0.5629000000000001	5.831733333333333	1.0
789.1955764357934	0.6468333333333334	6.2148	1.0
789.2904259081516	0.6398999999999999	6.025066666666667	1.0
789.2904259081516	0.6366333333333333	5.9593333333333325	1.0
789.6599628448546	0.7134666666666666	6.5784	1.0
789.6599628448546	0.7460333333333333	6.8045333333333335	1.0
789.6599628448546	0.7303999999999999	6.361866666666667	1.0
787.7257121640818	0.6005333333333333	6.438933333333335	1.0
787.7257121640818	0.6214	6.596266666666667	1.0
787.7257121640818	0.5934333333333333	6.429466666666667	1.0
787.7257121640818	0.5312	5.7904	1.0
787.7257121640818	0.5178333333333333	5.659066666666666	1.0
786.9870645810053	0.5123999999999999	5.619599999999999	1.0
786.9870645810053	0.5123999999999999	5.950399999999999	1.0
786.9870645810053	0.5224666666666665	6.1222666666666665	1.0
786.4417528068127	0.5319666666666666	6.1222666666666665	1.0
786.4417528068127	0.5166666666666666	5.985999999999999	1.0
786.0761297459086	0.4852999999999999	5.56	1.0
786.0761297459086	0.5346999999999998	6.161066666666667	1.0
786.0761297459086	0.5526333333333332	6.398266666666668	1.0
784.9762630422954	0.5314333333333332	6.317066666666667	1.0
784.9762630422954	0.4676999999999999	5.603999999999998	1.0
784.8878448245623	0.5004666666666666	5.8919999999999995	1.0
784.8878448245623	0.49163333333333326	6.0410666666666675	1.0
784.8878448245623	0.5154666666666666	6.146266666666667	1.0
784.886196853591	0.5154666666666666	6.142533333333334	1.0
784.886196853591	0.5066666666666666	6.348533333333334	1.0
784.52229287108	0.5218999999999999	6.348533333333334	1.0
784.52229287108	0.5032666666666666	6.1624	1.0
784.5223839126778	0.49663333333333315	6.052	1.0
784.5223839126778	0.4975666666666666	5.982133333333333	1.0
784.5223839126778	0.4772333333333332	5.778266666666667	1.0
784.5223839126778	0.48143333333333327	5.9239999999999995	1.0
784.5223839126778	0.5061	6.2588	1.0
783.3406291164717	0.4768333333333334	5.8908	1.0
783.3406291164717	0.5121666666666665	6.2688	1.0
783.3406291164717	0.4901333333333332	6.145333333333333	1.0
783.253658065112	0.4901333333333332	5.523466666666667	1.0
783.253658065112	0.43276666666666663	5.523466666666667	1.0
782.8891003800417	0.4523666666666666	5.6125333333333325	1.0
782.8891003800417	0.5136666666666666	6.380000000000002	1.0
782.8891003800417	0.5124333333333333	6.433066666666667	1.0
781.7097605381293	0.45059999999999995	5.8024000000000004	1.0
781.7097605381293	0.46676666666666655	5.9984	1.0
781.7089889773634	0.4601666666666666	6.027466666666667	1.0
781.7089889773634	0.4662333333333333	6.0287999999999995	1.0
781.7089889773634	0.47619999999999985	5.988666666666666	1.0
781.7132612939574	0.46319999999999995	5.940133333333333	1.0
781.7132612939574	0.46319999999999995	6.013733333333334	1.0
781.4369287209948	0.4637333333333333	5.976133333333334	1.0
781.4369287209948	0.47886666666666655	5.976133333333334	1.0
781.4369287209948	0.44203333333333317	5.527066666666666	1.0
781.3456694800351	0.4148333333333332	5.3684	1.0
781.3456694800351	0.42266666666666663	5.389733333333333	1.0
780.6236825741096	0.45156666666666656	5.688000000000001	1.0
780.6236825741096	0.42273333333333324	5.471066666666666	1.0
780.6236825741096	0.4174666666666666	5.381733333333333	1.0
780.0893518626274	0.4241666666666666	5.492266666666666	1.0
780.0893518626274	0.42283333333333334	5.541599999999999	1.0
779.8135338657877	0.43356666666666666	5.569599999999999	1.0
779.8135338657877	0.43356666666666666	5.739466666666667	1.0
779.8135338657877	0.4416666666666666	5.667066666666666	1.0
778.6470934127286	0.44026666666666664	5.667066666666666	1.0
778.6470934127286	0.41896666666666654	5.470266666666667	1.0
778.5621830103182	0.42823333333333324	5.560933333333333	1.0
778.5621830103182	0.44363333333333327	5.787866666666667	1.0
778.2905620990756	0.45956666666666657	6.027466666666666	1.0
778.2905620990756	0.46059999999999984	5.996133333333333	1.0
778.2905620990756	0.4468666666666667	5.7932	1.0
778.2000455824917	0.4547666666666666	5.929066666666666	1.0
778.2000455824917	0.4222333333333333	5.553066666666666	1.0
777.9276244171277	0.4352333333333332	5.6956	1.0
777.9276244171277	0.4352333333333332	5.756399999999999	1.0
777.9276244171277	0.4399333333333333	5.756399999999999	1.0
777.4843853094944	0.4241	5.461733333333333	1.0
777.4843853094944	0.40946666666666665	5.3012	1.0
777.036964474469	0.41373333333333323	5.5385333333333335	1.0
777.036964474469	0.4122666666666666	5.4272	1.0
777.036964474469	0.39333333333333326	5.2001333333333335	1.0
776.5937190974952	0.4242333333333333	5.455866666666666	1.0
776.5937190974952	0.4229333333333332	5.574266666666666	1.0
776.5937190974952	0.4424999999999999	5.857866666666666	1.0
776.5937190974952	0.4395999999999999	5.808933333333333	1.0
776.5937190974952	0.40349999999999997	5.312133333333333	1.0
775.4336711431461	0.40349999999999997	5.567733333333333	1.0
775.4336711431461	0.4245333333333332	5.8242666666666665	1.0
775.1670486373754	0.44123333333333326	5.8242666666666665	1.0
775.1670486373754	0.44623333333333326	5.857466666666666	1.0
775.1670486373754	0.42143333333333327	5.442533333333333	1.0
775.1675521662467	0.40113333333333323	5.4	1.0
775.1675521662467	0.42153333333333326	5.471733333333334	1.0
775.209866569123	0.4117333333333333	5.519599999999999	1.0
775.209866569123	0.4165999999999999	5.505199999999999	1.0
774.7256980144771	0.4081333333333333	5.4216	1.0
774.7256980144771	0.41419999999999996	5.350933333333333	1.0
774.7256980144771	0.40256666666666663	5.236000000000001	1.0
773.9247849848298	0.40256666666666663	5.3184	1.0
773.9247849848298	0.3975333333333333	5.090533333333334	1.0
773.6532732052744	0.40296666666666664	5.090533333333334	1.0
773.6532732052744	0.39623333333333327	5.0788	1.0
773.6532732052744	0.39933333333333326	5.0548	1.0
773.2172219542706	0.39659999999999995	5.193999999999999	1.0
773.2172219542706	0.3730666666666666	4.925999999999999	1.0
772.1527543331007	0.40329999999999994	5.206533333333334	1.0
772.1527543331007	0.4265999999999999	5.463466666666666	1.0
772.1527543331007	0.4187999999999999	5.5451999999999995	1.0
772.1527543331007	0.38033333333333325	4.902666666666668	1.0
772.1527543331007	0.38136666666666663	4.731466666666667	1.0
771.7129697309341	0.38136666666666663	4.673333333333333	1.0
771.7129697309341	0.36663333333333326	5.276400000000001	1.0
771.7129697309341	0.40893333333333326	5.276400000000001	1.0
771.3602685845516	0.4160666666666666	5.23	1.0
771.3602685845516	0.38139999999999996	4.8172	1.0
770.9231405101125	0.3824333333333333	4.826266666666667	1.0
770.9231405101125	0.3878333333333333	4.9770666666666665	1.0
770.9231405101125	0.4046999999999999	5.190933333333334	1.0
770.5712635408266	0.3967	5.168799999999999	1.0
770.5712635408266	0.4016333333333333	5.1048	1.0
770.2175731832262	0.3901666666666666	4.8932	1.0
770.2175731832262	0.3926333333333333	4.892533333333333	1.0
770.2175731832262	0.3926333333333333	5.0188	1.0
769.262628674467	0.39479999999999993	5.421733333333333	1.0
769.262628674467	0.4396	5.421733333333333	1.0
769.0774998258463	0.4594999999999999	5.7108	1.0
769.0774998258463	0.43776666666666664	5.696533333333334	1.0
769.0774998258463	0.43126666666666663	5.184933333333333	1.0
769.0774998258463	0.38036666666666663	4.744266666666666	1.0
769.0774998258463	0.3970333333333333	4.829066666666667	1.0
768.6432212475805	0.4229333333333333	5.306933333333333	1.0
768.6432212475805	0.41829999999999995	5.366666666666666	1.0
768.2088519348436	0.40279999999999994	4.940266666666666	1.0
768.2088519348436	0.40183333333333326	4.8970666666666665	1.0
768.2088519348436	0.40183333333333326	4.912266666666667	1.0
767.7730222604101	0.39723333333333327	4.768533333333334	1.0
767.7730222604101	0.39819999999999994	4.768533333333334	1.0
767.5110635334429	0.37309999999999993	4.6016	1.0
767.5110635334429	0.3956333333333332	4.844666666666667	1.0
767.5110635334429	0.39859999999999995	4.861866666666667	1.0
767.4290326120569	0.4101333333333333	5.0014666666666665	1.0
767.4290326120569	0.40709999999999996	4.9608	1.0
766.9936617317114	0.39849999999999997	4.719866666666666	1.0
766.9936617317114	0.3950333333333333	4.7588	1.0
766.9936617317114	0.40586666666666665	4.8252	1.0
766.0322391946231	0.42936666666666656	5.199066666666666	1.0
766.0322391946231	0.42936666666666656	5.247866666666666	1.0
765.9472971271783	0.4353666666666666	5.247866666666666	1.0
765.9472971271783	0.40513333333333323	4.990933333333334	1.0
765.9472971271783	0.3930666666666666	4.6884	1.0
765.8637422323377	0.38783333333333325	4.4796000000000005	1.0
765.8637422323377	0.36739999999999995	4.3137333333333325	1.0
765.4339950010366	0.36266666666666664	4.291333333333333	1.0
765.4339950010366	0.39046666666666663	4.7348	1.0
765.4339950010366	0.4224666666666666	4.8868	1.0
765.3387642678312	0.4202999999999999	4.9344	1.0
765.3387642678312	0.43123333333333325	5.111199999999999	1.0
764.907478756912	0.43123333333333325	4.801866666666666	1.0
764.907478756912	0.3971999999999999	4.909599999999999	1.0
764.9087526506125	0.4078333333333333	4.909599999999999	1.0
764.9087526506125	0.41636666666666666	4.921066666666666	1.0
764.9087526506125	0.41569999999999996	4.8861333333333326	1.0
764.9087526506125	0.4124999999999999	4.8305333333333325	1.0
764.9087526506125	0.39546666666666663	4.750800000000001	1.0
764.0448445920321	0.4118666666666666	4.761733333333333	1.0
764.0448445920321	0.3865333333333333	4.584133333333333	1.0
764.0448445920321	0.38783333333333325	4.516000000000001	1.0
764.0448445920321	0.3838	4.448666666666667	1.0
764.0448445920321	0.3800999999999999	4.438933333333335	1.0
763.9603377628279	0.3800999999999999	4.3984000000000005	1.0
763.9603377628279	0.3734666666666666	4.330666666666667	1.0
763.9603377628279	0.3765666666666666	4.330666666666667	1.0
762.8395005252157	0.3681999999999999	4.286133333333334	1.0
762.8395005252157	0.35823333333333324	3.9867999999999997	1.0
762.8402606920621	0.3533333333333332	3.8866666666666667	1.0
762.8402606920621	0.35373333333333323	3.8902666666666663	1.0
762.8402606920621	0.36813333333333326	4.1056	1.0
762.4135743992414	0.36219999999999997	4.0309333333333335	1.0
762.4135743992414	0.37149999999999994	4.2052	1.0
762.152836492034	0.35946666666666666	4.174933333333334	1.0
762.152836492034	0.3615666666666666	3.9612000000000003	1.0
762.152836492034	0.3615666666666666	3.979066666666666	1.0
762.1497223672616	0.36039999999999994	3.979066666666666	1.0
762.1497223672616	0.3800666666666666	4.322533333333334	1.0
762.0689081254114	0.37786666666666663	4.258266666666667	1.0
762.0689081254114	0.3755666666666666	4.349600000000001	1.0
762.0689081254114	0.3955666666666666	4.398800000000001	1.0
762.0681409934919	0.3892666666666666	4.342	1.0
762.0681409934919	0.39473333333333327	4.3844	1.0
762.0688603584339	0.3964999999999999	4.372800000000001	1.0
762.0688603584339	0.3908333333333333	4.380800000000001	1.0
762.0688603584339	0.3752999999999999	4.194533333333333	1.0
757.9738895466943	0.3752999999999999	4.043333333333333	1.0
757.9738895466943	0.37783333333333324	3.9974666666666665	1.0
757.4093164537937	0.3829333333333333	3.9974666666666665	1.0
757.4093164537937	0.3741	3.936933333333333	1.0
757.4093164537937	0.3659666666666666	3.874000000000001	1.0
757.2919277177075	0.37209999999999993	3.876266666666667	1.0
757.2919277177075	0.39559999999999995	4.1972000000000005	1.0
757.2098772286937	0.4142333333333333	4.412666666666667	1.0
757.2098772286937	0.4149333333333333	4.456800000000001	1.0
756.9532778185461	0.42303333333333326	4.557333333333333	1.0
756.9532778185461	0.44889999999999985	4.7516	1.0
756.9532778185461	0.4238333333333333	4.523333333333333	1.0
756.5308797961166	0.4238333333333333	4.0552	1.0
756.5308797961166	0.3886666666666666	4.0552	1.0
756.5311327307501	0.41543333333333327	4.4504	1.0
756.5311327307501	0.4328666666666665	4.506133333333333	1.0
756.5311327307501	0.42369999999999997	4.393466666666667	1.0
756.1054641404853	0.41129999999999994	4.196933333333333	1.0
756.1054641404853	0.40079999999999993	4.238	1.0
755.8547075777135	0.41113333333333324	4.261466666666667	1.0
755.8547075777135	0.3969666666666666	4.231999999999999	1.0
755.8547075777135	0.4130999999999999	4.238266666666667	1.0
755.3480128285747	0.4167999999999999	4.320266666666666	1.0
755.3480128285747	0.4167999999999999	4.181866666666666	1.0
755.0149070954902	0.39406666666666657	3.9486666666666665	1.0
755.0149070954902	0.3914999999999999	3.9486666666666665	1.0
755.0149070954902	0.4054333333333333	4.1056	1.0
754.336162587361	0.3973666666666666	3.9896000000000003	1.0
754.336162587361	0.40176666666666666	3.9819999999999998	1.0
754.0009667920167	0.4550333333333333	4.561466666666667	1.0
754.0009667920167	0.44859999999999994	4.678933333333334	1.0
754.0009667920167	0.44309999999999994	4.593733333333334	1.0
754.0009667920167	0.4260999999999999	4.277200000000001	1.0
754.0009667920167	0.4352999999999999	4.386533333333333	1.0
753.2438839448017	0.43843333333333323	4.495333333333334	1.0
753.2438839448017	0.43843333333333323	3.944933333333333	1.0
753.2438839448017	0.40346666666666664	3.944933333333333	1.0
753.1622983960257	0.41056666666666664	4.061333333333334	1.0
753.1622983960257	0.4109999999999999	4.182	1.0
752.9085499366789	0.4343666666666667	4.345600000000001	1.0
752.9085499366789	0.43846666666666656	4.361066666666667	1.0
752.9085499366789	0.4302333333333333	4.323466666666667	1.0
752.1572474754186	0.4203333333333333	4.162800000000001	1.0
752.1572474754186	0.44573333333333326	4.379333333333334	1.0
752.1563518442547	0.43606666666666666	4.411466666666668	1.0
752.1563518442547	0.45123333333333326	4.4956000000000005	1.0
752.1563518442547	0.4381999999999999	4.1928	1.0
751.4064632936697	0.4381999999999999	3.9832	1.0
751.4064632936697	0.4122666666666666	3.9832	1.0
751.3255073850145	0.4397333333333332	4.2936	1.0
751.3255073850145	0.4299999999999999	4.1332	1.0
751.3255073850145	0.46059999999999995	4.406133333333334	1.0
751.0732982748867	0.4619999999999999	4.435333333333334	1.0
751.0732982748867	0.4305333333333332	4.024400000000001	1.0
750.6562472287825	0.44429999999999986	4.253466666666666	1.0
750.6562472287825	0.4565333333333333	4.350000000000001	1.0
750.6562472287825	0.4525999999999999	4.295466666666667	1.0
750.3232729140695	0.4232333333333333	3.9471999999999996	1.0
750.3232729140695	0.4232333333333333	3.895466666666666	1.0
750.2405975633366	0.41613333333333324	4.181333333333334	1.0
750.2405975633366	0.44173333333333326	4.181333333333334	1.0
750.2405975633366	0.4649999999999999	4.4232000000000005	1.0
750.101582607331	0.4654999999999999	4.280133333333334	1.0
750.101582607331	0.4506666666666666	4.251200000000001	1.0
750.101582607331	0.4453666666666665	4.253866666666666	1.0
750.101582607331	0.44316666666666665	4.106266666666667	1.0
750.101582607331	0.43849999999999995	4.053466666666666	1.0
