wavelength(nm)	flourescence PMT(V)	ti_saph Power (V)	Gain (V)
800.4308355481284	0.18469999999999995	1.1628	1.1
800.4308355481284	0.18379999999999994	1.1125333333333334	1.1
800.4302864741572	0.17436666666666661	1.1008	1.1
800.811421358663	0.18466666666666662	1.1525333333333334	1.1
800.9083896938515	0.18466666666666662	1.1142666666666667	1.1
800.9083896938515	0.18136666666666662	1.1142666666666667	1.1
801.0948449795085	0.1749666666666666	1.0758666666666667	1.1
801.0981984695754	0.17833333333333323	1.0770666666666666	1.1
801.193472259798	0.18223333333333327	1.0778666666666668	1.1
801.193472259798	0.17236666666666658	1.0790666666666668	1.1
801.1915044113337	0.18666666666666662	1.16	1.1
801.191509132964	0.19563333333333324	1.2018666666666669	1.1
801.2845493437399	0.18423333333333328	1.1776000000000002	1.1
801.3892285272807	0.1775666666666666	1.1592	1.1
801.3892285272807	0.18939999999999993	1.0897333333333337	1.1
801.3892285272807	0.18939999999999993	1.1522666666666668	1.1
802.8113069973914	0.19019999999999992	1.16	1.1
802.7216239080677	0.1861666666666666	1.16	1.1
802.7216239080677	0.18873333333333325	1.1818666666666668	1.1
802.7213533402817	0.1914666666666666	1.1645333333333334	1.1
803.2908824706913	0.18409999999999993	1.1597333333333333	1.1
803.484795445271	0.18839999999999993	1.1481333333333335	1.1
804.150638445767	0.18279999999999993	1.1593333333333335	1.1
804.150638445767	0.19893333333333327	1.1608	1.1
804.1469881570258	0.1812999999999999	1.1130666666666666	1.1
804.342216991253	0.18843333333333323	1.1130666666666669	1.1
804.3464959229993	0.1902999999999999	1.1565333333333336	1.1
804.3464959229993	0.1902999999999999	1.1352	1.1
804.4414484417172	0.1837666666666666	1.0802666666666667	1.1
804.4365457466913	0.18323333333333328	1.0802666666666667	1.1
804.6284724778889	0.1849666666666666	1.0798666666666668	1.1
804.6284724778889	0.19283333333333327	1.1314666666666668	1.1
804.8259092776752	0.18323333333333325	1.1498666666666668	1.1
804.8259657730204	0.18749999999999992	1.16	1.1
804.8287158298873	0.19399999999999995	1.2189333333333336	1.1
805.9819595900938	0.19439999999999993	1.1878666666666666	1.1
805.9819595900938	0.1915999999999999	1.1748000000000003	1.1
805.9819595900938	0.19129999999999994	1.1977333333333335	1.1
806.0708204513155	0.20563333333333328	1.265066666666667	1.1
806.262930490926	0.20563333333333328	1.3189333333333335	1.1
806.262930490926	0.20493333333333325	1.3016	1.1
806.2592546787538	0.1940999999999999	1.3016	1.1
806.9375432129473	0.1998666666666666	1.227066666666667	1.1
807.0287679213761	0.18566666666666662	1.16	1.1
807.4209571680913	0.19173333333333328	1.2412000000000003	1.1
807.4209571680913	0.1887666666666666	1.16	1.1
807.7154856589187	0.1877666666666666	1.16	1.1
807.7154856589187	0.1826333333333333	1.1582666666666668	1.1
807.8051974680968	0.18343333333333328	1.1602666666666668	1.1
807.8051974680968	0.20343333333333327	1.2682666666666669	1.1
807.9004926655945	0.1966666666666666	1.2628000000000004	1.1
807.80635780913	0.1966666666666666	1.2369333333333334	1.1
807.902572644157	0.19959999999999994	1.2288000000000003	1.1
807.902572644157	0.19503333333333325	1.2288000000000003	1.1
808.0999169752539	0.18949999999999995	1.2585333333333335	1.1
808.1009415471948	0.19709999999999994	1.2445333333333335	1.1
808.1997698101668	0.18809999999999993	1.215866666666667	1.1
808.2877850834236	0.18513333333333326	1.1590666666666667	1.1
808.2877850834236	0.17743333333333328	1.1569333333333334	1.1
809.3660107818545	0.19169999999999993	1.2590666666666668	1.1
809.4531310973242	0.19499999999999992	1.2272000000000003	1.1
809.4562223330186	0.18566666666666662	1.2080000000000004	1.1
809.4562223330186	0.20196666666666657	1.1637333333333335	1.1
809.5479095030539	0.20196666666666657	1.1608	1.1
810.233559221758	0.1892999999999999	1.1608	1.1
810.58439211389	0.18903333333333328	1.1605333333333334	1.1
810.6275622972731	0.18283333333333326	1.1881333333333335	1.1
810.6275622972731	0.19276666666666661	1.3822666666666668	1.1
811.0670599123283	0.19653333333333325	1.3881333333333334	1.1
811.1040497659245	0.19779999999999992	1.3200000000000003	1.1
811.1083234463483	0.19329999999999992	1.3208000000000004	1.1
811.1083234463483	0.21049999999999994	1.3525333333333336	1.1
811.4099750263232	0.19903333333333326	1.3380000000000003	1.1
811.501773615998	0.19759999999999994	1.3200000000000003	1.1
811.4099786539498	0.19759999999999994	1.289866666666667	1.1
811.5018593903368	0.19403333333333325	1.2078666666666669	1.1
811.5018593903368	0.18999999999999995	1.2078666666666669	1.1
811.5042079778426	0.1885666666666666	1.16	1.1
811.801473623567	0.18469999999999995	1.16	1.1
811.7972829705132	0.17709999999999992	1.1594666666666669	1.1
811.7972829705132	0.18859999999999993	1.1597333333333333	1.1
812.6759481334028	0.1929666666666666	1.3394666666666668	1.1
812.6786607270842	0.1938666666666666	1.3248000000000002	1.1
813.0719654783292	0.1831666666666666	1.1849333333333334	1.1
813.1641030232777	0.18423333333333325	1.1894666666666667	1.1
813.1641030232777	0.1965999999999999	1.3209333333333335	1.1
813.1609249503665	0.1965999999999999	1.3752000000000002	1.1
813.1609249503665	0.2014666666666666	1.2413333333333336	1.1
814.0461661309074	0.19869999999999993	1.2413333333333336	1.1
814.0461661309074	0.1972666666666666	1.2361333333333335	1.1
814.539458459737	0.1847999999999999	1.2733333333333334	1.1
814.7410891698703	0.18359999999999996	1.3768000000000002	1.1
814.7398041889523	0.1977666666666666	1.3898666666666668	1.1
814.7397677385687	0.20323333333333324	1.398	1.1
814.7397677385687	0.20446666666666663	1.3996	1.1
814.7387524481078	0.2069666666666666	1.3998666666666668	1.1
814.7430021579563	0.20013333333333325	1.3994666666666669	1.1
815.1357765804787	0.19389999999999996	1.2933333333333337	1.1
815.1357765804787	0.19389999999999996	1.1597333333333333	1.1
815.1346053748971	0.17139999999999997	1.1817333333333335	1.1
815.3229814180046	0.17519999999999997	1.1817333333333335	1.1
816.2082677449922	0.1866666666666666	1.3189333333333335	1.1
816.2082677449922	0.1873666666666666	1.1681333333333335	1.1
816.2082677449922	0.18136666666666662	1.16	1.1
816.8132269393595	0.17526666666666663	1.16	1.1
816.811573934089	0.18039999999999995	1.3201333333333336	1.1
817.3041201166974	0.18789999999999996	1.3172000000000004	1.1
817.3041201166974	0.1862666666666666	1.3185333333333336	1.1
817.495174492835	0.18516666666666662	1.2750666666666668	1.1
817.7957136615754	0.17846666666666658	1.1814666666666669	1.1
817.7958770161521	0.17846666666666658	1.1605333333333334	1.1
817.7958770161521	0.1749666666666666	1.2112	1.1
818.1943770643363	0.17716666666666658	1.2112	1.1
818.2873600589498	0.18663333333333326	1.3140000000000003	1.1
818.2915672881599	0.18093333333333325	1.2389333333333334	1.1
818.4983178284552	0.18039999999999995	1.167066666666667	1.1
818.4983178284552	0.1865999999999999	1.256266666666667	1.1
818.5917190659627	0.1719666666666666	1.246266666666667	1.1
818.6865233859983	0.1653999999999999	1.1848	1.1
818.6886790965525	0.18543333333333328	1.243466666666667	1.1
818.6886790965525	0.1828666666666666	1.315066666666667	1.1
819.7935329662291	0.1777666666666666	1.2769333333333337	1.1
819.7888837614036	0.1777666666666666	1.3180000000000003	1.1
819.8872503560962	0.18259999999999993	1.2776000000000003	1.1
820.4944150920333	0.17729999999999993	1.2776000000000003	1.1
820.4944150920333	0.17019999999999993	1.2236000000000002	1.1
820.7809944818788	0.18179999999999993	1.3212000000000002	1.1
820.592797223904	0.1749666666666666	1.2489333333333335	1.1
821.085449929965	0.17583333333333326	1.3164000000000002	1.1
821.085449929965	0.18099999999999994	1.3774666666666666	1.1
821.0851220265882	0.1851666666666666	1.3993333333333333	1.1
821.0851220265882	0.1827999999999999	1.3966666666666667	1.1
821.5813128340553	0.1768333333333333	1.4004	1.1
821.7933219920984	0.17809999999999993	1.4314666666666667	1.1
821.7933219920984	0.17809999999999993	1.4040000000000001	1.1
821.7921941103148	0.18143333333333325	1.3998666666666668	1.1
821.8917586332728	0.17466666666666658	1.3998666666666668	1.1
821.987542449327	0.1704666666666666	1.3489333333333335	1.1
821.987542449327	0.1766999999999999	1.3317333333333337	1.1
822.1949051560347	0.17333333333333326	1.3201333333333336	1.1
822.1949051560347	0.1751666666666666	1.3049333333333335	1.1
822.2946225646242	0.17969999999999994	1.2869333333333335	1.1
823.4899995263819	0.1698666666666666	1.3080000000000003	1.1
823.4899995263819	0.18053333333333327	1.4357333333333333	1.1
823.4899995263819	0.1780666666666666	1.48	1.1
823.4911835238905	0.18379999999999994	1.4785333333333333	1.1
823.9020682299891	0.18379999999999994	1.3882666666666668	1.1
823.9020682299891	0.1745333333333333	1.4010666666666667	1.1
823.9020682299891	0.17239999999999994	1.4010666666666667	1.1
824.3090244654231	0.17039999999999994	1.4267999999999998	1.1
824.4006002709891	0.1636666666666666	1.3793333333333335	1.1
824.4010365252713	0.16349999999999995	1.319066666666667	1.1
824.4010365252713	0.17566666666666658	1.2916000000000005	1.1
824.4010365252713	0.16159999999999994	1.376666666666667	1.1
825.2153005128937	0.1653333333333333	1.3444000000000003	1.1
825.2136370330595	0.1595666666666666	1.2673333333333334	1.1
825.2136370330595	0.1611666666666666	1.3021333333333336	1.1
825.2136370330595	0.16383333333333328	1.4096	1.1
825.6123520363673	0.16383333333333328	1.48	1.1
825.7136977230399	0.16989999999999994	1.48	1.1
825.7136977230399	0.16779999999999995	1.4613333333333332	1.1
825.7099798257443	0.17003333333333326	1.3684	1.1
825.7126933984101	0.1669666666666666	1.3196000000000003	1.1
825.7126933984101	0.16339999999999993	1.3192000000000004	1.1
826.4275163728616	0.16399999999999995	1.356666666666667	1.1
826.4275163728616	0.16943333333333327	1.3922666666666668	1.1
827.0314537295607	0.1623666666666666	1.3660000000000003	1.1
827.0296608111638	0.17186666666666664	1.373866666666667	1.1
827.0296608111638	0.16299999999999992	1.3253333333333337	1.1
827.0296608111638	0.16299999999999992	1.3201333333333336	1.1
827.337828375116	0.1596333333333333	1.3200000000000003	1.1
828.0467667393259	0.16066666666666662	1.3200000000000003	1.1
828.0419762074007	0.16339999999999993	1.3841333333333334	1.1
828.6641694514699	0.16463333333333327	1.4801333333333333	1.1
828.6641694514699	0.16833333333333328	1.4670666666666667	1.1
828.6643130773225	0.16709999999999994	1.3373333333333335	1.1
828.6643130773225	0.15043333333333328	1.313866666666667	1.1
828.7614883067841	0.16809999999999992	1.3264000000000002	1.1
828.7614883067841	0.1726666666666666	1.4746666666666666	1.1
829.2735210255407	0.15869999999999995	1.3844	1.1
829.378750961172	0.15623333333333328	1.4389333333333332	1.1
829.3776982931121	0.15623333333333328	1.4321333333333333	1.1
829.3787606356274	0.17369999999999994	1.4017333333333335	1.1
829.3787606356274	0.1613666666666666	1.4017333333333335	1.1
829.9880778104751	0.15949999999999995	1.3229333333333337	1.1
829.8831497002534	0.1577666666666666	1.3921333333333334	1.1
830.4006754180728	0.15329999999999994	1.3537333333333335	1.1
830.4006754180728	0.16159999999999994	1.3232000000000002	1.1
830.4956128468891	0.17216666666666658	1.4267999999999998	1.1
830.3989613619698	0.1663666666666666	1.4753333333333332	1.1
830.9030768764266	0.15919999999999995	1.3886666666666667	1.1
831.2149358649302	0.1644333333333333	1.3901333333333337	1.1
831.2149358649302	0.16029999999999994	1.4530666666666667	1.1
831.2149521035471	0.16029999999999994	1.48	1.1
831.7298853159435	0.1648666666666666	1.4770666666666665	1.1
831.7298853159435	0.1634333333333333	1.4770666666666665	1.1
831.7298853159435	0.15826666666666664	1.3584000000000003	1.1
831.9383402876731	0.1684666666666666	1.3245333333333336	1.1
832.5487074614581	0.16469999999999993	1.4136	1.1
832.6527103245129	0.16799999999999993	1.3329333333333337	1.1
832.6530918424811	0.17449999999999993	1.3265333333333336	1.1
832.6530918424811	0.17233333333333328	1.4786666666666666	1.1
832.9558800056475	0.1781666666666666	1.4373333333333334	1.1
832.9629350543753	0.1699666666666666	1.4001333333333335	1.1
832.9643452615105	0.1783333333333333	1.3980000000000001	1.1
832.9643452615105	0.1783333333333333	1.3489333333333335	1.1
832.9643452615105	0.17803333333333327	1.3489333333333335	1.1
833.3794154152213	0.19089999999999993	1.3397333333333337	1.1
833.8866099565902	0.19979999999999995	1.4146666666666665	1.1
833.9883743301257	0.20673333333333324	1.4449333333333334	1.1
833.9883743301257	0.20273333333333327	1.2365333333333337	1.1
834.2968617243673	0.2217999999999999	1.2409333333333337	1.1
834.3024397612573	0.23059999999999992	1.0884	1.1
834.5161402135378	0.23353333333333326	1.0358666666666667	1.1
834.5161402135378	0.19019999999999992	0.49866666666666676	1.1
834.8198588445296	0.17969999999999994	0.23720000000000022	1.1
834.7159022078804	0.17969999999999994	0.13933333333333348	1.1
835.4366793302794	0.14509999999999995	0.01933333333333335	1.1
835.4366793302794	0.12293333333333327	0.01933333333333335	1.1
835.4412935822189	0.12569999999999992	-0.0034666666666666695	1.1
835.6455964609464	0.11216666666666661	-0.027733333333333356	1.1
835.815970504905	0.10533333333333329	-0.033066666666666696	1.1
836.0614969407845	0.11289999999999997	-0.03173333333333336	1.1
836.0614969407845	0.10509999999999996	-0.03280000000000003	1.1
836.5827756615879	0.10906666666666662	-0.0346666666666667	1.1
836.5831587100367	0.10999999999999996	-0.03266666666666669	1.1
836.7886302176003	0.11196666666666663	-0.03453333333333337	1.1
836.7886302176003	0.09916666666666663	-0.02973333333333336	1.1
837.0030964646396	0.09916666666666663	-0.031866666666666696	1.1
837.1060901581565	0.10893333333333331	-0.031866666666666696	1.1
837.4181401770129	0.11266666666666661	-0.0338666666666667	1.1
837.7718501755136	0.1162333333333333	-0.034266666666666695	1.1
837.7718501755136	0.09986666666666662	-0.03266666666666669	1.1
837.7267419131501	0.10356666666666663	-0.032266666666666693	1.1
837.7269385220833	0.10999999999999996	-0.03440000000000003	1.1
838.1481334106193	0.11093333333333329	-0.03213333333333336	1.1
838.1481334106193	0.10276666666666663	-0.031866666666666696	1.1
838.1477467062339	0.11313333333333328	-0.034800000000000025	1.1
838.9334027364903	0.11203333333333329	-0.03413333333333336	1.1
838.985444878058	0.10586666666666662	-0.03453333333333337	1.1
839.0866051869702	0.10586666666666662	-0.03240000000000003	1.1
839.0866051869702	0.10393333333333328	-0.03240000000000003	1.1
839.2922243527765	0.10399999999999995	-0.03453333333333337	1.1
839.502527769099	0.12039999999999997	-0.03453333333333337	1.1
839.8215071588542	0.10626666666666662	-0.0334666666666667	1.1
839.8215071588542	0.10729999999999996	-0.03373333333333336	1.1
840.1368093878384	0.10719999999999995	-0.03440000000000003	1.1
840.3464442854367	0.10856666666666662	-0.0334666666666667	1.1
840.4477532937389	0.1080333333333333	-0.03413333333333336	1.1
840.867388298742	0.10279999999999995	-0.031600000000000024	1.1
840.867388298742	0.11009999999999996	-0.033066666666666696	1.1
840.8636211099728	0.11009999999999996	-0.034266666666666695	1.1
841.2866494362409	0.10743333333333327	-0.03213333333333336	1.1
841.2866494362409	0.10589999999999995	-0.03213333333333336	1.1
841.2866494362409	0.10729999999999995	-0.031866666666666696	1.1
841.2866494362409	0.11129999999999995	-0.0350666666666667	1.1
841.6045917626298	0.10436666666666662	-0.032266666666666693	1.1
841.7074851966456	0.10849999999999997	-0.03266666666666669	1.1
841.9209768735963	0.10486666666666662	-0.03280000000000003	1.1
841.9209768735963	0.10919999999999996	-0.03200000000000003	1.1
842.0240774762519	0.10496666666666661	-0.03200000000000003	1.1
842.3427823141691	0.11589999999999993	-0.0346666666666667	1.1
843.0750385486091	0.10636666666666664	-0.03266666666666669	1.1
843.0750385486091	0.10636666666666664	-0.03240000000000003	1.1
842.8730126415813	0.1113333333333333	-0.0338666666666667	1.1
843.1778023627512	0.11136666666666661	-0.0338666666666667	1.1
843.3963657201947	0.10306666666666663	-0.03320000000000003	1.1
844.0257493204289	0.10833333333333328	-0.03213333333333336	1.1
844.0257493204289	0.11386666666666663	-0.03333333333333336	1.1
844.3461090382032	0.10633333333333331	-0.0334666666666667	1.1
844.5551070316826	0.11083333333333328	-0.03240000000000003	1.1
844.5551070316826	0.10449999999999995	-0.035466666666666695	1.1
844.5551070316826	0.11003333333333327	-0.03586666666666669	1.1
844.6651789643396	0.10769999999999996	-0.034266666666666695	1.1
844.8722885281105	0.10329999999999996	-0.03266666666666669	1.1
844.8761548025823	0.10329999999999996	-0.03373333333333336	1.1
844.8761548025823	0.10853333333333329	-0.03213333333333336	1.1
844.9789858331461	0.1079333333333333	-0.03213333333333336	1.1
843.0748013024684	0.10833333333333328	-0.03266666666666669	1.1
843.0703498739441	0.10833333333333328	-0.0334666666666667	1.1
843.0703498739441	0.10786666666666661	-0.03453333333333337	1.1
842.6524156767359	0.11533333333333327	-0.03453333333333337	1.1
842.3424316207156	0.10816666666666663	-0.0338666666666667	1.1
842.177710255379	0.11076666666666664	-0.03453333333333337	1.1
842.177710255379	0.10609999999999996	-0.03240000000000003	1.1
841.708422585661	0.1105333333333333	-0.0334666666666667	1.1
841.6091170210034	0.10806666666666663	-0.035600000000000034	1.1
841.3874844515859	0.11543333333333328	-0.0338666666666667	1.1
841.2879753722922	0.11013333333333328	-0.03440000000000003	1.1
841.2879753722922	0.10496666666666661	-0.034266666666666695	1.1
840.8684315280622	0.11433333333333327	-0.03373333333333336	1.1
840.964770235137	0.11433333333333327	-0.03266666666666669	1.1
840.8644147421178	0.11326666666666661	-0.03400000000000003	1.1
840.8644147421178	0.11136666666666663	-0.03400000000000003	1.1
840.8637673324885	0.10833333333333328	-0.03240000000000003	1.1
840.445493919333	0.11179999999999995	-0.03573333333333337	1.1
840.4457550955343	0.10376666666666662	-0.033066666666666696	1.1
839.8225638428394	0.10413333333333329	-0.03360000000000003	1.1
839.8225638428394	0.11193333333333327	-0.03266666666666669	1.1
839.4985873834099	0.11279999999999997	-0.03280000000000003	1.1
839.4038874420319	0.10389999999999996	-0.03333333333333336	1.1
838.982678722871	0.10236666666666662	-0.031200000000000026	1.1
838.982678722871	0.10236666666666662	-0.03213333333333336	1.1
839.1745854295223	0.11359999999999995	-0.03293333333333336	1.1
838.8756042233537	0.10559999999999996	-0.03293333333333336	1.1
838.8756042233537	0.10159999999999997	-0.033066666666666696	1.1
838.8756042233537	0.10283333333333329	-0.03200000000000003	1.1
838.1448466297171	0.11239999999999994	-0.032266666666666693	1.1
837.7274808660644	0.10589999999999995	-0.0346666666666667	1.1
837.4155831327564	0.11099999999999995	-0.03333333333333336	1.1
837.5168406587122	0.10919999999999996	-0.03333333333333336	1.1
837.5168406587122	0.11146666666666662	-0.03360000000000003	1.1
837.0963389380768	0.10449999999999995	-0.03266666666666669	1.1
837.1100004847298	0.11149999999999996	-0.035466666666666695	1.1
837.003022811831	0.11149999999999996	-0.03293333333333336	1.1
837.003022811831	0.10929999999999997	-0.031866666666666696	1.1
836.7984727304934	0.10456666666666663	-0.031866666666666696	1.1
836.7883977678805	0.10739999999999997	-0.03440000000000003	1.1
836.5833713149875	0.10766666666666663	-0.03266666666666669	1.1
836.3776290264677	0.10523333333333329	-0.032266666666666693	1.1
836.3776290264677	0.10943333333333329	-0.03573333333333337	1.1
836.0616288916125	0.10326666666666662	-0.032533333333333365	1.1
835.8611240868025	0.10589999999999997	-0.033066666666666696	1.1
835.7510685389408	0.10719999999999995	-0.031200000000000026	1.1
835.7510685389408	0.11039999999999997	-0.03333333333333336	1.1
835.2367299261413	0.12166666666666662	-0.012533333333333344	1.1
835.2380722661022	0.12166666666666662	0.00426666666666667	1.1
834.9207006769303	0.1256333333333333	0.038266666666666706	1.1
834.7217789192589	0.13303333333333328	0.038266666666666706	1.1
834.7217789192589	0.15273333333333328	0.17640000000000014	1.1
834.7197350416978	0.18723333333333328	0.37240000000000006	1.1
834.7197350416978	0.22393333333333326	0.7924	1.1
833.8876857740529	0.22393333333333326	0.7924	1.1
833.8876857740529	0.22393333333333326	0.7924	1.1
833.8922059858072	0.22393333333333326	0.7924	1.1
833.8921549740317	0.2013999999999999	1.1600000000000001	1.1
833.4771398851901	0.1799666666666666	1.243066666666667	1.1
833.371199817773	0.19343333333333323	1.3582666666666667	1.1
833.371199817773	0.18109999999999996	1.3802666666666668	1.1
832.9606711155235	0.18253333333333324	1.3380000000000003	1.1
832.9575742603588	0.1792666666666666	1.3577333333333335	1.1
832.9575742603588	0.1731666666666666	1.3993333333333333	1.1
832.9575742603588	0.1731666666666666	1.4458666666666666	1.1
832.5519917809536	0.1705666666666666	1.3856000000000002	1.1
832.5514568337125	0.1748666666666666	1.3856000000000002	1.1
831.7281281018312	0.17593333333333327	1.3964	1.1
831.7237799395028	0.1709666666666666	1.3956000000000002	1.1
831.7237799395028	0.16279999999999997	1.3062666666666671	1.1
831.5281236421506	0.1490666666666666	1.2973333333333334	1.1
831.2150538870958	0.15799999999999995	1.4002666666666668	1.1
831.2150271084743	0.1694666666666666	1.48	1.1
831.2150271084743	0.15649999999999997	1.4793333333333332	1.1
830.9016823780047	0.15759999999999993	1.3644	1.1
830.4007676004912	0.17673333333333327	1.4555999999999998	1.1
830.40103493337	0.17673333333333327	1.4801333333333333	1.1
830.085660429094	0.16589999999999994	1.4085333333333334	1.1
830.085660429094	0.16269999999999996	1.4085333333333334	1.1
829.9814846679217	0.1586333333333333	1.3512000000000002	1.1
829.3799492391624	0.1592666666666666	1.3604000000000003	1.1
829.3799492391624	0.16319999999999993	1.348266666666667	1.1
829.3799492391624	0.15229999999999994	1.3952000000000002	1.1
829.3765579695672	0.16863333333333325	1.4676	1.1
829.2741229422398	0.1655666666666666	1.3308000000000004	1.1
828.8583979142413	0.16439999999999994	1.3241333333333336	1.1
828.6643549938201	0.15929999999999994	1.48	1.1
828.6643549938201	0.16019999999999993	1.3998666666666668	1.1
828.6587715401745	0.16043333333333326	1.3532000000000002	1.1
828.5631799669567	0.16043333333333326	1.4329333333333334	1.1
828.2486625072991	0.16373333333333331	1.4212	1.1
828.2486625072991	0.16833333333333328	1.4212	1.1
827.7462291153345	0.16849999999999996	1.48	1.1
827.8439602020386	0.16906666666666662	1.4798666666666667	1.1
827.8439602020386	0.17339999999999994	1.4793333333333332	1.1
827.0323552956366	0.1621333333333333	1.3209333333333335	1.1
827.0323552956366	0.16403333333333325	1.3605333333333336	1.1
827.0340204357083	0.16323333333333329	1.372266666666667	1.1
826.8208587343241	0.1549666666666666	1.3093333333333337	1.1
826.1229082004431	0.1590666666666666	1.3220000000000003	1.1
826.1229082004431	0.1590666666666666	1.446	1.1
825.7128313948323	0.16319999999999993	1.3236	1.1
825.6138874405065	0.1697333333333333	1.3236	1.1
825.7107811873162	0.1672333333333333	1.3209333333333335	1.1
825.7107811873162	0.16819999999999993	1.334266666666667	1.1
825.4066765031888	0.16173333333333328	1.4137333333333333	1.1
825.3085954308046	0.1738666666666666	1.4504	1.1
825.3112228091837	0.1612666666666666	1.3213333333333337	1.1
825.2099379303936	0.16859999999999994	1.2989333333333335	1.1
825.2099379303936	0.15509999999999996	1.2452000000000003	1.1
824.8071449471211	0.16023333333333326	1.3685333333333336	1.1
824.8071449471211	0.17409999999999995	1.4049333333333334	1.1
824.4036773756935	0.17409999999999995	1.2900000000000005	1.1
824.4036773756935	0.16856666666666661	1.3261333333333338	1.1
824.0949063472564	0.17609999999999995	1.3261333333333338	1.1
823.9025545015198	0.16709999999999994	1.3244000000000002	1.1
823.4954527071835	0.18053333333333327	1.3376000000000003	1.1
823.5006536188963	0.16979999999999992	1.3316000000000003	1.1
823.5006536188963	0.17473333333333327	1.463733333333333	1.1
823.5016980146714	0.17583333333333326	1.48	1.1
822.2437945325621	0.16913333333333327	1.4254666666666667	1.1
822.2918870062578	0.16606666666666658	1.2517333333333336	1.1
822.2918870062578	0.16989999999999994	1.232	1.1
822.2938002041476	0.17276666666666662	1.261466666666667	1.1
822.2938002041476	0.17276666666666662	1.363866666666667	1.1
821.892750245885	0.17019999999999996	1.3990666666666667	1.1
821.8917617811076	0.17839999999999995	1.3990666666666667	1.1
821.8917617811076	0.17649999999999993	1.4587999999999999	1.1
821.8899369171717	0.17693333333333328	1.4369333333333334	1.1
821.7908621410027	0.17619999999999994	1.3894666666666668	1.1
821.3879930989398	0.17523333333333327	1.3484000000000003	1.1
821.3879930989398	0.18059999999999993	1.3380000000000003	1.1
820.9947464662611	0.18283333333333326	1.3866666666666667	1.1
820.9913786694966	0.17749999999999996	1.3878666666666668	1.1
820.6861515678646	0.18513333333333326	1.3214666666666668	1.1
820.4896222176094	0.1726666666666666	1.3116000000000005	1.1
820.4896222176094	0.1726666666666666	1.3488000000000004	1.1
820.4927608857324	0.18116666666666661	1.3648000000000002	1.1
819.7881353955174	0.1783666666666666	1.3648000000000002	1.1
819.7933097945535	0.1839666666666666	1.3608	1.1
819.7933097945535	0.17909999999999995	1.3796000000000002	1.1
819.7933097945535	0.17773333333333327	1.273866666666667	1.1
818.6876384630849	0.1953666666666666	1.3456000000000001	1.1
818.5916542901779	0.17403333333333326	1.3176000000000003	1.1
818.495839055753	0.17649999999999993	1.1990666666666667	1.1
818.495839055753	0.17906666666666662	1.2357333333333334	1.1
818.495839055753	0.18573333333333325	1.2404000000000004	1.1
818.2883561759306	0.18219999999999992	1.2388000000000003	1.1
818.1966735009087	0.1678666666666666	1.245066666666667	1.1
818.1966735009087	0.1678666666666666	1.3193333333333335	1.1
817.8001942754045	0.18843333333333329	1.3193333333333335	1.1
817.4907928934718	0.18079999999999993	1.1642666666666666	1.1
817.3968231091717	0.17443333333333327	1.2018666666666669	1.1
816.9090741027494	0.17593333333333327	1.2077333333333335	1.1
816.9090741027494	0.18113333333333326	1.2409333333333337	1.1
816.9090741027494	0.18053333333333327	1.3141333333333336	1.1
816.2091717873267	0.1862666666666666	1.3141333333333338	1.1
816.2093118243897	0.17199999999999993	1.16	1.1
816.2093118243897	0.17959999999999993	1.16	1.1
815.3239828209007	0.18689999999999993	1.3513333333333337	1.1
815.1304718129633	0.19339999999999993	1.342266666666667	1.1
815.1315051575859	0.19339999999999993	1.1626666666666667	1.1
814.7411399077241	0.17259999999999992	1.2225333333333337	1.1
814.7411399077241	0.18726666666666658	1.2225333333333337	1.1
814.740023635195	0.20179999999999992	1.3986666666666667	1.1
814.74117668534	0.1974999999999999	1.4004	1.1
814.739966909313	0.20079999999999992	1.4005333333333332	1.1
814.739966909313	0.1907666666666666	1.3925333333333334	1.1
814.739966909313	0.19963333333333325	1.3686666666666667	1.1
814.739966909313	0.19193333333333326	1.2397333333333336	1.1
813.6501844841185	0.18829999999999994	1.2401333333333335	1.1
813.1640653426824	0.20673333333333324	1.3200000000000003	1.1
813.1640653426824	0.20099999999999993	1.3312000000000004	1.1
813.1652636395393	0.20099999999999993	1.3390666666666668	1.1
813.1622725760412	0.1890666666666666	1.3233333333333337	1.1
812.6753151342625	0.19643333333333327	1.3233333333333337	1.1
812.6753151342625	0.19979999999999995	1.3373333333333335	1.1
812.6753151342625	0.19533333333333328	1.323466666666667	1.1
811.7972353311451	0.1900666666666666	1.1614666666666669	1.1
811.801346085368	0.18303333333333327	1.16	1.1
811.5000516157959	0.17956666666666662	1.1408	1.1
811.5000516157959	0.18173333333333327	1.1593333333333335	1.1
811.4067142069249	0.19259999999999994	1.2030666666666667	1.1
811.4066905605665	0.18943333333333326	1.283466666666667	1.1
811.4073393433797	0.18966666666666662	1.3200000000000003	1.1
811.4073393433797	0.18966666666666662	1.3148000000000002	1.1
811.3040070184302	0.19133333333333324	1.3148000000000002	1.1
811.1064652831309	0.19999999999999993	1.3110666666666668	1.1
811.1097700492413	0.20259999999999992	1.4478666666666666	1.1
810.6308945911485	0.20439999999999994	1.4514666666666667	1.1
810.6308945911485	0.20023333333333326	1.2956000000000003	1.1
810.2359191120453	0.19489999999999993	1.3568000000000002	1.1
810.2345020972255	0.19203333333333328	1.225066666666667	1.1
809.5499731443115	0.19006666666666658	1.16	1.1
809.5499731443115	0.17929999999999993	1.1844000000000001	1.1
809.5498360889296	0.1904666666666666	1.16	1.1
809.4585987735455	0.19223333333333326	1.1782666666666668	1.1
809.3597137320348	0.19223333333333326	1.1609333333333334	1.1
809.1585254232356	0.18749999999999992	1.1644	1.1
809.1585254232356	0.19133333333333327	1.1644	1.1
808.1034394933203	0.18863333333333326	1.173066666666667	1.1
808.1040043795823	0.1898666666666666	1.1616	1.1
808.1061397687121	0.1972666666666666	1.2186666666666668	1.1
808.1061397687121	0.19226666666666659	1.2390666666666668	1.1
808.0066689562204	0.1969666666666666	1.1801333333333337	1.1
807.9014716754244	0.2006666666666666	1.1868	1.1
807.9014716754244	0.2034666666666666	1.2405333333333337	1.1
807.9014716754244	0.19379999999999994	1.3140000000000003	1.1
807.812216102234	0.19379999999999994	1.2608000000000004	1.1
807.7128319816262	0.19076666666666658	1.1601333333333337	1.1
807.7128319816262	0.1911999999999999	1.1601333333333337	1.1
806.9374428695496	0.17749999999999996	1.16	1.1
806.9374428695496	0.2032666666666666	1.301866666666667	1.1
806.9399361605072	0.18456666666666657	1.1734666666666669	1.1
806.1644696167476	0.19016666666666662	1.1392	1.1
806.1644696167476	0.1863666666666666	1.2381333333333335	1.1
806.1644696167476	0.19803333333333326	1.239866666666667	1.1
806.0708115927644	0.19123333333333326	1.203066666666667	1.1
805.780709348668	0.1934666666666666	1.1917333333333338	1.1
804.7261094596854	0.1951666666666666	1.2328000000000001	1.1
804.8221779281499	0.1951666666666666	1.194266666666667	1.1
804.8221779281499	0.20086666666666658	1.167066666666667	1.1
804.8221655375531	0.1928333333333333	1.167066666666667	1.1
804.6329776427502	0.18683333333333327	1.16	1.1
804.4407051352747	0.18699999999999994	1.1414666666666666	1.1
804.4407051352747	0.17869999999999994	1.1305333333333334	1.1
804.4336514275305	0.19223333333333326	1.1046666666666667	1.1
804.3461685545186	0.1881666666666666	1.1317333333333335	1.1
804.3425569367184	0.17613333333333328	1.1280000000000001	1.1
804.3425569367184	0.18203333333333327	1.1429333333333336	1.1
804.1515927486861	0.18653333333333327	1.154266666666667	1.1
803.4732209973457	0.1892999999999999	1.1606666666666667	1.1
803.4726716912959	0.1892999999999999	1.16	1.1
802.8149042403583	0.17939999999999992	1.16	1.1
802.8149042403583	0.18269999999999992	1.16	1.1
802.7214541178898	0.1929666666666666	1.2209333333333336	1.1
802.337107496906	0.1913666666666666	1.2381333333333335	1.1
801.3901367683142	0.19139999999999993	1.215866666666667	1.1
801.3901367683142	0.18793333333333326	1.0990666666666669	1.1
801.3808950709615	0.19209999999999994	1.120666666666667	1.1
801.2828642727537	0.18233333333333326	1.144266666666667	1.1
801.1489195162469	0.18973333333333325	1.1604	1.1
801.1933663249013	0.18403333333333327	1.2384000000000002	1.1
801.1933663249013	0.19233333333333327	1.3097333333333336	1.1
801.1022779326187	0.19233333333333327	1.2289333333333337	1.1
801.0982741777932	0.19563333333333324	1.0901333333333334	1.1
801.1010114404006	0.17193333333333327	1.0901333333333334	1.1
801.1010114404006	0.18199999999999994	1.0576	1.1
801.0982597061326	0.18566666666666662	1.0373333333333332	1.1
800.8077522015834	0.18239999999999995	1.0717333333333334	1.1
800.8077522015834	0.1881333333333333	1.1669333333333334	1.1
800.8077522015834	0.1848666666666666	1.1640000000000001	1.1
800.3344488701407	0.19089999999999993	1.0954666666666668	1.1
