wavelength(nm)	flourescence PMT(V)	ti_saph Power (V)	Gain (V)
800.5176235649785	0.08629999999999996	6.052533333333334	1.0
800.8096021649246	0.08006666666666662	6.316	1.0
800.9011444224759	0.08123333333333328	6.2684	1.0
800.9011444224759	0.08306666666666662	6.378400000000001	1.0
801.0887995353047	0.08229999999999996	6.4198666666666675	1.0
801.0888670547919	0.08229999999999996	6.596133333333333	1.0
801.1842254005916	0.08269999999999995	6.484	1.0
801.1842254005916	0.07986666666666663	6.484	1.0
801.181610731405	0.08533333333333329	6.2268	1.0
801.3701630885091	0.08369999999999995	6.122000000000001	1.0
801.3701630885091	0.08056666666666662	6.211333333333334	1.0
801.3706569572907	0.08496666666666662	6.803466666666666	1.0
801.3712439592625	0.08883333333333328	6.817200000000001	1.0
802.7050613004227	0.07736666666666663	6.396400000000001	1.0
802.7050613004227	0.08279999999999996	6.242266666666666	1.0
802.7041612002846	0.07966666666666662	6.256133333333333	1.0
802.7090195036567	0.07959999999999993	6.223199999999999	1.0
802.9014341553008	0.07959999999999993	6.239466666666667	1.0
802.9014341553008	0.08013333333333328	6.516666666666667	1.0
802.9008009143483	0.07699999999999996	6.516666666666667	1.0
803.468823385291	0.08416666666666663	6.422666666666667	1.0
803.9438662230956	0.08006666666666663	6.192266666666667	1.0
803.9438662230956	0.07593333333333328	6.2608	1.0
804.1450702656849	0.08153333333333329	6.442666666666668	1.0
804.2360500282003	0.07966666666666661	6.280000000000001	1.0
804.2360500282003	0.07763333333333328	6.0422666666666665	1.0
804.2361760395088	0.08149999999999996	5.952	1.0
804.4310583462697	0.08543333333333328	6.280399999999999	1.0
804.3800530215386	0.08256666666666662	6.586666666666667	1.0
804.3800530215386	0.08256666666666662	6.62	1.0
804.7116486777996	0.08489999999999995	6.594266666666667	1.0
804.6239052174888	0.08259999999999995	6.594266666666667	1.0
804.7220825315832	0.08379999999999996	6.424133333333334	1.0
804.7220825315832	0.08069999999999995	6.319466666666667	1.0
804.9149852792464	0.07949999999999995	6.373733333333335	1.0
805.8705004657883	0.08073333333333328	6.4282666666666675	1.0
805.9596255964021	0.07856666666666662	6.2165333333333335	1.0
805.9596255964021	0.0831333333333333	6.5372	1.0
805.9625186391122	0.07966666666666662	6.460933333333334	1.0
806.3483407634778	0.08149999999999996	6.494266666666667	1.0
806.3483407634778	0.08409999999999995	6.172	1.0
806.3496472535198	0.08409999999999995	6.0524	1.0
806.3485061572732	0.07779999999999995	6.049199999999999	1.0
806.3485061572732	0.07996666666666663	6.049199999999999	1.0
806.3485061572732	0.08376666666666663	6.481066666666667	1.0
807.1240069144692	0.08039999999999994	6.154133333333333	1.0
807.5125719959226	0.08323333333333328	6.529733333333334	1.0
807.5115830456958	0.08669999999999994	6.653466666666667	1.0
807.5115830456958	0.07666666666666662	6.424133333333334	1.0
807.5115830456958	0.08139999999999996	6.313466666666667	1.0
807.8934841505516	0.08703333333333328	6.277333333333333	1.0
807.8992917646224	0.0797333333333333	6.544533333333333	1.0
807.8992917646224	0.08433333333333329	6.940799999999999	1.0
807.9876822378135	0.08856666666666663	7.058400000000002	1.0
807.9919800848404	0.08856666666666663	7.079866666666667	1.0
807.9919800848404	0.08573333333333329	7.079866666666667	1.0
807.9911850492326	0.08333333333333329	7.041733333333333	1.0
808.2832247966393	0.08619999999999996	6.6032	1.0
809.2478725348561	0.08926666666666662	6.531066666666667	1.0
809.2478725348561	0.08406666666666661	6.676666666666668	1.0
809.4556543645944	0.08406666666666662	7.000800000000001	1.0
809.4540230142643	0.08486666666666662	7.176533333333333	1.0
809.5471894268597	0.08273333333333328	7.0098666666666665	1.0
809.5471894268597	0.08386666666666663	6.781866666666667	1.0
809.5471686077593	0.08039999999999996	6.615066666666666	1.0
810.3180795609395	0.08946666666666662	6.848	1.0
810.4196326453635	0.08946666666666662	6.744399999999999	1.0
810.4196326453635	0.08639999999999996	6.445333333333334	1.0
810.8946616666528	0.07926666666666662	6.445333333333334	1.0
810.9076438518221	0.08346666666666662	6.4021333333333335	1.0
811.1046289057093	0.07946666666666662	6.543866666666667	1.0
811.1046289057093	0.08009999999999996	6.7136	1.0
811.1044424222686	0.08339999999999996	6.656266666666667	1.0
811.1953118802261	0.0839666666666666	6.518000000000001	1.0
811.2922088356984	0.08349999999999995	6.6710666666666665	1.0
811.2922088356984	0.0821333333333333	6.931866666666666	1.0
811.3873858086184	0.08323333333333328	7.0785333333333345	1.0
811.2933503277101	0.08709999999999996	6.7888	1.0
811.2933503277101	0.08709999999999996	6.8332	1.0
811.4935388831003	0.08049999999999995	7.129333333333334	1.0
811.4988048880115	0.08369999999999995	7.129333333333334	1.0
811.684973984482	0.09229999999999995	7.242133333333334	1.0
811.684973984482	0.08133333333333329	6.692266666666667	1.0
811.684973984482	0.08393333333333329	6.768533333333333	1.0
812.630716793025	0.0804333333333333	6.948799999999999	1.0
812.8642763415494	0.08566666666666661	6.918266666666667	1.0
812.8642763415494	0.08289999999999996	7.088533333333334	1.0
812.8642763415494	0.08656666666666664	7.009466666666667	1.0
813.1537967919536	0.0850333333333333	6.6932	1.0
813.1534233760725	0.08006666666666662	6.732799999999999	1.0
813.1534233760725	0.0804333333333333	6.662133333333333	1.0
813.1534233760725	0.0804333333333333	7.024266666666666	1.0
814.0416447452088	0.08443333333333329	7.2481333333333335	1.0
814.5307227190395	0.09266666666666662	7.2481333333333335	1.0
814.5307227190395	0.08156666666666662	7.271333333333334	1.0
814.5298560750388	0.08006666666666662	6.811466666666667	1.0
814.528615452999	0.07576666666666662	6.63	1.0
814.528615452999	0.08073333333333328	6.5372	1.0
814.7312358433592	0.08196666666666662	6.562533333333334	1.0
814.7339951898592	0.0823333333333333	6.582400000000001	1.0
815.1118371625691	0.07766666666666662	6.646933333333334	1.0
815.1118371625691	0.08206666666666661	6.973333333333334	1.0
815.1173405346971	0.08443333333333329	7.250933333333334	1.0
815.3170215132076	0.08443333333333329	7.187733333333332	1.0
815.3205107444224	0.08476666666666662	7.1012	1.0
815.3205107444224	0.08576666666666662	7.1012	1.0
816.2059285394154	0.07999999999999995	7.343333333333334	1.0
816.2059228873038	0.08503333333333328	7.3549333333333315	1.0
816.9057616818294	0.08349999999999995	7.371866666666667	1.0
816.9057616818294	0.08236666666666662	7.300799999999999	1.0
816.9970568726752	0.0821333333333333	7.351999999999999	1.0
817.4909536565004	0.07949999999999996	7.335466666666666	1.0
817.4913071134988	0.08346666666666662	7.382533333333334	1.0
817.4913071134988	0.0821333333333333	7.399999999999999	1.0
817.4913071134988	0.08496666666666662	7.399999999999999	1.0
817.7923108366028	0.08496666666666662	7.3835999999999995	1.0
817.7923108366028	0.08533333333333329	7.303466666666666	1.0
817.7923108366028	0.08349999999999995	7.303466666666666	1.0
818.283795434968	0.0861333333333333	7.391866666666665	1.0
818.2865793155306	0.08416666666666663	7.399999999999999	1.0
818.2865793155306	0.08796666666666662	7.399999999999999	1.0
818.2883631627719	0.08516666666666661	7.399999999999999	1.0
818.5871524295685	0.07906666666666662	7.3991999999999996	1.0
818.6814444356893	0.08609999999999994	7.2708	1.0
818.6814444356893	0.08446666666666662	7.115866666666667	1.0
818.5871938529468	0.08029999999999994	6.775066666666667	1.0
819.3845880690005	0.07469999999999995	6.677466666666667	1.0
819.3845880690005	0.07863333333333329	7.1761333333333335	1.0
819.3845880690005	0.07863333333333329	7.1878666666666655	1.0
819.8821999517787	0.07896666666666662	7.2932	1.0
820.375581318629	0.07676666666666662	7.2932	1.0
820.4735836778658	0.08429999999999996	7.362400000000001	1.0
820.4735836778658	0.07633333333333328	7.273333333333333	1.0
820.8725763043279	0.07489999999999995	7.112933333333333	1.0
820.8725763043279	0.07986666666666663	6.860533333333333	1.0
820.8725763043279	0.07446666666666663	6.819466666666667	1.0
821.0788449391408	0.07899999999999996	6.8398666666666665	1.0
821.0788449391408	0.07796666666666661	6.7316	1.0
821.582547770481	0.07193333333333328	6.740533333333334	1.0
821.582547770481	0.07263333333333329	6.851866666666665	1.0
821.7733120723274	0.07899999999999995	7.1739999999999995	1.0
821.7820191710344	0.07899999999999995	7.272533333333334	1.0
821.8816169743403	0.07979999999999994	7.272533333333334	1.0
821.8816169743403	0.08196666666666663	7.2164	1.0
821.9788072733876	0.0792333333333333	7.182000000000001	1.0
822.1700475569144	0.07869999999999995	7.37	1.0
822.172620306393	0.07256666666666661	7.107066666666668	1.0
822.172620306393	0.07599999999999996	6.723999999999999	1.0
822.4782174092537	0.07173333333333329	7.2569333333333335	1.0
822.4801318158189	0.08469999999999996	7.398399999999999	1.0
822.4801318158189	0.07746666666666661	7.399999999999999	1.0
823.482998346227	0.07323333333333328	7.0203999999999995	1.0
823.4811568803692	0.07323333333333328	6.910666666666666	1.0
823.7839960738431	0.07796666666666661	6.897999999999999	1.0
823.7839960738431	0.07753333333333327	6.897999999999999	1.0
823.7839960738431	0.07166666666666661	7.076266666666667	1.0
824.2877707832654	0.07369999999999995	7.335200000000001	1.0
824.2877625860795	0.0795666666666666	7.229333333333334	1.0
824.2877625860795	0.0751666666666666	7.082133333333334	1.0
824.2872184244184	0.07176666666666662	7.302933333333334	1.0
824.6918656658846	0.07236666666666662	7.3588	1.0
824.7948990765598	0.07579999999999995	7.267466666666667	1.0
824.7948990765598	0.07729999999999995	7.365466666666666	1.0
825.3050080974256	0.07823333333333328	7.268266666666666	1.0
825.4039056250135	0.07349999999999995	7.1339999999999995	1.0
825.3979930828149	0.07349999999999995	7.105866666666667	1.0
825.3979930828149	0.07206666666666661	7.105866666666667	1.0
825.5985576649077	0.07253333333333328	7.092000000000001	1.0
825.6031230827369	0.07529999999999995	7.0604	1.0
825.6031230827369	0.07296666666666662	7.074133333333332	1.0
825.8064777752909	0.0789333333333333	7.250266666666667	1.0
825.7125551652047	0.07556666666666663	7.353866666666666	1.0
825.7125551652047	0.07169999999999994	7.3226666666666675	1.0
825.7125551652047	0.07453333333333328	7.354399999999999	1.0
826.3110672691479	0.07629999999999995	7.399999999999999	1.0
826.7140514704985	0.07723333333333329	7.399999999999999	1.0
826.8235417234506	0.07673333333333329	7.399999999999999	1.0
826.8235417234506	0.07606666666666662	7.382133333333333	1.0
827.0278157430809	0.07606666666666662	7.399999999999999	1.0
827.2190347308155	0.07339999999999994	7.399999999999999	1.0
827.8271693698655	0.07559999999999995	7.399999999999999	1.0
827.8271693698655	0.07613333333333329	7.328800000000001	1.0
828.0382578727858	0.06813333333333328	7.316266666666667	1.0
828.0372695124696	0.07213333333333329	7.267866666666667	1.0
828.3390698639871	0.07386666666666661	7.131466666666667	1.0
828.3390698639871	0.06933333333333327	7.2204	1.0
828.6548079036804	0.07073333333333329	7.12	1.0
828.7551283539084	0.07159999999999996	7.398133333333332	1.0
828.7551283539084	0.07486666666666661	7.389333333333334	1.0
828.8970875670243	0.07459999999999994	7.0857333333333345	1.0
828.8564961977053	0.07459999999999994	7.087333333333333	1.0
829.2639403100428	0.07249999999999995	7.399999999999999	1.0
829.2639403100428	0.07199999999999995	7.399999999999999	1.0
829.2642454034647	0.07376666666666662	7.399999999999999	1.0
829.4695324745404	0.07393333333333328	7.399999999999999	1.0
829.4743725194078	0.07269999999999995	7.399999999999999	1.0
829.4743725194078	0.07486666666666662	7.398933333333333	1.0
829.9797008141054	0.07636666666666661	7.379199999999999	1.0
830.1815025277027	0.06989999999999995	7.399999999999999	1.0
830.3889186979917	0.07553333333333327	7.399599999999999	1.0
830.3889186979917	0.06919999999999994	7.347333333333332	1.0
830.591572062887	0.06743333333333329	7.267466666666666	1.0
830.5914107729791	0.06743333333333329	7.399733333333332	1.0
831.2066348610854	0.07379999999999995	7.399999999999999	1.0
831.2066348610854	0.07483333333333327	7.399999999999999	1.0
831.2065601529207	0.07483333333333328	7.392666666666666	1.0
831.7147728003554	0.07286666666666662	7.344399999999999	1.0
831.7147728003554	0.07139999999999995	7.37	1.0
831.7129550063448	0.07313333333333327	7.399999999999999	1.0
831.7129540209954	0.07756666666666662	7.399999999999999	1.0
832.2321536722349	0.07099999999999994	7.399999999999999	1.0
832.2321536722349	0.07583333333333328	7.400266666666665	1.0
832.6428172588304	0.07539999999999994	7.399999999999999	1.0
832.6425780859767	0.07843333333333329	7.1954666666666665	1.0
832.6472864543399	0.07096666666666662	7.132266666666667	1.0
832.6472864543399	0.07096666666666662	7.373866666666666	1.0
832.9581591833581	0.07536666666666662	7.373866666666666	1.0
833.055498963404	0.07389999999999995	7.316933333333333	1.0
833.3746765962475	0.07496666666666661	7.397733333333332	1.0
833.3746765962475	0.07693333333333328	7.388399999999998	1.0
833.3693220813092	0.08099999999999996	7.285600000000001	1.0
833.3610410667662	0.07746666666666661	7.258266666666667	1.0
833.4742817575755	0.08116666666666662	7.189466666666667	1.0
833.4742817575755	0.07769999999999996	7.057599999999999	1.0
833.9865225337068	0.07823333333333328	6.264666666666667	1.0
834.1237765839279	0.08069999999999995	5.887866666666667	1.0
834.1237765839279	0.07949999999999995	5.346133333333333	1.0
834.2979774714377	0.07949999999999995	5.157466666666667	1.0
834.297387088014	0.08196666666666663	4.330666666666666	1.0
834.7119904396495	0.07853333333333329	4.330666666666666	1.0
834.7119904396495	0.06573333333333328	1.7237333333333333	1.0
834.9104029281317	0.0636666666666666	1.1369333333333336	1.0
835.8062516667692	0.06426666666666661	0.7969333333333333	1.0
835.3259823452091	0.056333333333333284	0.21906666666666677	1.0
835.3259823452091	0.05833333333333327	0.09760000000000009	1.0
835.3259823452091	0.056099999999999935	0.04200000000000004	1.0
835.7490871471136	0.05769999999999994	-0.021466666666666686	1.0
836.0550056679341	0.0515666666666666	-0.019466666666666684	1.0
836.0550056679341	0.05406666666666662	-0.023333333333333355	1.0
836.2685312463353	0.05406666666666662	-0.02626666666666669	1.0
836.5726520617343	0.05796666666666661	-0.02586666666666669	1.0
836.5726520617343	0.05446666666666661	-0.02586666666666669	1.0
836.6755470551656	0.05469999999999994	-0.02626666666666669	1.0
836.4022043461183	0.05699999999999993	-0.02786666666666669	1.0
837.0923267856946	0.05369999999999994	-0.024400000000000022	1.0
837.0923267856946	0.0525666666666666	-0.02400000000000002	1.0
837.0960834340342	0.054333333333333275	-0.026400000000000024	1.0
837.5066605777047	0.052533333333333265	-0.026533333333333357	1.0
837.5139541104917	0.058199999999999946	-0.02786666666666669	1.0
837.5139541104917	0.05843333333333327	-0.02946666666666669	1.0
837.5166426684137	0.05019999999999994	-0.023333333333333355	1.0
837.8229324354884	0.05019999999999994	-0.027066666666666694	1.0
838.1346865235224	0.055566666666666605	-0.026133333333333356	1.0
838.1346865235224	0.05433333333333326	-0.026133333333333356	1.0
838.1346865235224	0.05383333333333327	-0.026133333333333356	1.0
838.3450897135361	0.057999999999999934	-0.02626666666666669	1.0
838.7592814978989	0.053333333333333274	-0.02666666666666669	1.0
838.7592814978989	0.05543333333333327	-0.024933333333333356	1.0
839.084942540798	0.054333333333333275	-0.024933333333333356	1.0
839.2876783564283	0.05263333333333327	-0.02506666666666669	1.0
839.2876783564283	0.055566666666666605	-0.025333333333333357	1.0
839.2875485932566	0.05209999999999994	-0.026000000000000023	1.0
839.3851385760166	0.05309999999999994	-0.024666666666666687	1.0
840.0162618112583	0.05309999999999994	-0.02746666666666669	1.0
840.0162618112583	0.05759999999999994	-0.02360000000000002	1.0
840.1205505165495	0.05459999999999994	-0.02360000000000002	1.0
840.4434890905684	0.052966666666666606	-0.02506666666666669	1.0
840.4465155398327	0.05456666666666661	-0.025600000000000022	1.0
840.4465155398327	0.05779999999999994	-0.027066666666666694	1.0
840.6427115726318	0.055533333333333275	-0.027066666666666694	1.0
840.6463442858093	0.05719999999999994	-0.02680000000000002	1.0
840.9568099053365	0.05013333333333327	-0.02386666666666669	1.0
840.9568099053365	0.051533333333333264	-0.026000000000000023	1.0
840.9568216600253	0.05529999999999994	-0.025600000000000022	1.0
840.9581938432358	0.053633333333333276	-0.027066666666666694	1.0
840.9581938432358	0.053633333333333276	-0.027333333333333355	1.0
840.957604745042	0.05886666666666661	-0.02400000000000002	1.0
840.957604745042	0.0506666666666666	-0.02400000000000002	1.0
841.2813941808332	0.053633333333333276	-0.026133333333333356	1.0
841.2813941808332	0.0536666666666666	-0.027600000000000027	1.0
841.4860931454887	0.05403333333333327	-0.027333333333333355	1.0
841.9057670476636	0.05479999999999993	-0.026400000000000024	1.0
842.1192024905621	0.05456666666666661	-0.027333333333333355	1.0
842.1192024905621	0.05569999999999993	-0.026133333333333356	1.0
842.5427811041337	0.052133333333333275	-0.02586666666666669	1.0
842.747870995942	0.0489666666666666	-0.024133333333333354	1.0
843.1141239003882	0.0542666666666666	-0.026133333333333356	1.0
843.1141239003882	0.0542666666666666	-0.027200000000000023	1.0
843.2759878194287	0.05609999999999995	-0.028933333333333356	1.0
843.278402055266	0.05786666666666661	-0.028933333333333356	1.0
843.2771989977301	0.05323333333333327	-0.02280000000000002	1.0
843.2771989977301	0.05386666666666661	-0.02426666666666669	1.0
844.125192449368	0.05579999999999993	-0.02626666666666669	1.0
844.3394177620912	0.053133333333333276	-0.025733333333333355	1.0
844.3394177620912	0.055466666666666595	-0.027333333333333355	1.0
844.5438666883647	0.05513333333333327	-0.02546666666666669	1.0
844.6569396986004	0.05163333333333327	-0.021200000000000017	1.0
844.661493104007	0.0528666666666666	-0.02400000000000002	1.0
844.661493104007	0.053366666666666604	-0.026000000000000023	1.0
844.8681545077848	0.055466666666666595	-0.026533333333333357	1.0
844.9700640637785	0.055466666666666595	-0.027733333333333356	1.0
844.9693551556009	0.05239999999999993	-0.027733333333333356	1.0
844.9693551556009	0.053199999999999935	-0.027733333333333356	1.0
844.3379324375004	0.0523666666666666	-0.02400000000000002	1.0
843.5955256131354	0.0523666666666666	-0.024533333333333355	1.0
843.6998638604824	0.05326666666666661	-0.023466666666666688	1.0
843.6998638604824	0.051833333333333266	-0.023466666666666688	1.0
843.2775826308292	0.05279999999999994	-0.02680000000000002	1.0
843.172227591633	0.04993333333333327	-0.025733333333333355	1.0
843.172227591633	0.05343333333333326	-0.02320000000000002	1.0
843.0699479486323	0.05653333333333326	-0.024800000000000023	1.0
842.7507072862628	0.05136666666666661	-0.023333333333333355	1.0
842.3336874251645	0.054033333333333274	-0.02586666666666669	1.0
842.3336874251645	0.05466666666666661	-0.026533333333333357	1.0
841.7614113588787	0.055333333333333276	-0.027733333333333356	1.0
841.8070213939185	0.0552666666666666	-0.027600000000000027	1.0
841.6025590466813	0.0552666666666666	-0.02626666666666669	1.0
841.6025590466813	0.05493333333333328	-0.02626666666666669	1.0
841.3813014414177	0.05479999999999993	-0.02626666666666669	1.0
841.2843006952352	0.05373333333333328	-0.02520000000000002	1.0
840.9577514262724	0.05383333333333328	-0.025600000000000022	1.0
840.9577514262724	0.05139999999999993	-0.02426666666666669	1.0
840.9577391225571	0.05429999999999995	-0.024800000000000023	1.0
840.9582651036912	0.053633333333333276	-0.023466666666666688	1.0
840.9582651036912	0.057099999999999936	-0.027600000000000027	1.0
840.9582651036912	0.0546666666666666	-0.02520000000000002	1.0
840.4445875921206	0.052166666666666604	-0.02400000000000002	1.0
839.9121844301385	0.050633333333333266	-0.024800000000000023	1.0
839.9121844301385	0.050633333333333266	-0.02746666666666669	1.0
839.9160812884222	0.05973333333333328	-0.025733333333333355	1.0
839.4935395329705	0.05256666666666661	-0.025733333333333355	1.0
839.2876610694404	0.05589999999999994	-0.026533333333333357	1.0
839.2876610694404	0.05493333333333328	-0.026133333333333356	1.0
839.2788073620569	0.05569999999999993	-0.02586666666666669	1.0
838.968455956458	0.05329999999999994	-0.029066666666666692	1.0
838.8650046566088	0.05449999999999993	-0.027066666666666694	1.0
838.8650046566088	0.05289999999999994	-0.02746666666666669	1.0
838.8642320941599	0.055066666666666604	-0.02853333333333336	1.0
838.241570234729	0.05643333333333327	-0.02933333333333336	1.0
837.9280952275778	0.05283333333333327	-0.02666666666666669	1.0
837.9280952275778	0.05283333333333327	-0.02786666666666669	1.0
837.718308900983	0.05343333333333326	-0.02946666666666669	1.0
837.5079384395788	0.05446666666666661	-0.02946666666666669	1.0
837.5079384395788	0.05069999999999993	-0.025600000000000022	1.0
837.3571964570012	0.05586666666666661	-0.027733333333333356	1.0
837.0954359587465	0.055933333333333266	-0.029600000000000026	1.0
837.0910586790477	0.05363333333333326	-0.02586666666666669	1.0
837.0910586790477	0.053199999999999935	-0.026933333333333358	1.0
837.0910586790477	0.05573333333333328	-0.02786666666666669	1.0
836.5790635472401	0.051133333333333274	-0.02280000000000002	1.0
836.2707089236486	0.0536666666666666	-0.026133333333333356	1.0
836.2707089236486	0.05516666666666661	-0.02586666666666669	1.0
836.5777980931372	0.05516666666666661	-0.023066666666666687	1.0
836.2583940575513	0.05259999999999994	-0.025600000000000022	1.0
835.8511052487255	0.053166666666666605	-0.025600000000000022	1.0
835.8511052487255	0.05539999999999994	-0.024800000000000023	1.0
835.7439926018922	0.051299999999999936	-0.022133333333333352	1.0
835.3270216485248	0.05689999999999993	-0.019066666666666683	1.0
835.3304157218907	0.05249999999999994	0.04600000000000004	1.0
835.3304157218907	0.05483333333333327	0.09120000000000009	1.0
835.3277180496638	0.056933333333333266	0.11546666666666676	1.0
834.9110027495909	0.05519999999999994	0.5250666666666667	1.0
834.9110027495909	0.06346666666666662	1.1562666666666666	1.0
834.9154693811524	0.06693333333333328	1.4281333333333335	1.0
834.4027525313159	0.06693333333333328	4.696	1.0
834.2982940768925	0.07999999999999995	5.580933333333332	1.0
834.2982940768925	0.07903333333333329	5.580933333333332	1.0
833.8793704446422	0.08186666666666663	5.780799999999999	1.0
833.8793704446422	0.07923333333333328	6.451466666666667	1.0
833.4719050117126	0.07596666666666661	6.853999999999999	1.0
833.4719050117126	0.07749999999999996	7.068133333333334	1.0
833.4719050117126	0.07913333333333329	7.252133333333334	1.0
833.3733391036072	0.07193333333333328	7.2128000000000005	1.0
833.0559028131653	0.07429999999999995	7.333333333333333	1.0
833.0559028131653	0.07673333333333329	7.4392000000000005	1.0
833.0574020768112	0.07646666666666661	7.439866666666665	1.0
832.9096612340842	0.07646666666666661	7.404533333333334	1.0
832.9096612340842	0.07463333333333327	7.399333333333332	1.0
832.645007333538	0.07976666666666662	7.399333333333332	1.0
832.234167422737	0.07183333333333329	7.301333333333332	1.0
832.234181728698	0.07096666666666662	7.400799999999999	1.0
832.234181728698	0.07673333333333329	7.4614666666666665	1.0
831.9240626363315	0.07699999999999996	7.4589333333333325	1.0
831.714876461963	0.07603333333333329	7.450266666666667	1.0
831.5092145702007	0.06846666666666662	7.399999999999999	1.0
831.5092145702007	0.07109999999999994	7.259733333333333	1.0
831.5092036072476	0.07119999999999994	7.292800000000001	1.0
831.2083409747952	0.07309999999999996	7.399999999999999	1.0
830.4895467503542	0.07309999999999996	7.414399999999999	1.0
830.4895467503542	0.07296666666666662	7.417466666666666	1.0
830.392403020225	0.07373333333333328	7.417466666666666	1.0
830.1815965046512	0.07179999999999995	7.398933333333333	1.0
829.981388868091	0.06866666666666661	7.392399999999999	1.0
829.981388868091	0.06983333333333329	7.4064000000000005	1.0
829.9786830247906	0.07133333333333328	7.399999999999999	1.0
829.5703169511021	0.07006666666666661	7.399999999999999	1.0
829.5703169511021	0.07299999999999995	7.399999999999999	1.0
829.2651998350243	0.07489999999999995	7.4155999999999995	1.0
829.26021059508	0.07573333333333328	7.441999999999998	1.0
828.8522484208243	0.07249999999999995	7.441733333333332	1.0
828.8522484208243	0.07249999999999995	7.2924	1.0
828.8522315721318	0.07509999999999994	7.210133333333333	1.0
828.7538612341763	0.07449999999999994	7.210133333333333	1.0
828.3399326745524	0.07369999999999995	7.349066666666667	1.0
828.3399326745524	0.07563333333333327	7.377866666666666	1.0
828.0393703175616	0.07613333333333329	7.234533333333334	1.0
827.9392278256836	0.07119999999999994	7.127199999999999	1.0
827.9422250299721	0.07093333333333329	7.334933333333334	1.0
827.9422250299721	0.06873333333333327	7.399999999999999	1.0
827.028869201152	0.07139999999999994	7.399999999999999	1.0
827.02461181778	0.0755666666666666	7.399999999999999	1.0
827.02461181778	0.07876666666666661	7.427199999999999	1.0
827.0270925637606	0.07349999999999995	7.424266666666666	1.0
827.0270925637606	0.07349999999999995	7.4101333333333335	1.0
826.1155021746713	0.07653333333333329	7.395999999999999	1.0
826.1155021746713	0.07429999999999995	7.395999999999999	1.0
825.7101345305523	0.07216666666666662	7.207199999999999	1.0
825.8094621630443	0.07443333333333328	7.399999999999999	1.0
825.6124429510019	0.07719999999999994	7.399999999999999	1.0
825.6124429510019	0.07573333333333328	7.399999999999999	1.0
825.4023241844283	0.07143333333333328	7.348933333333333	1.0
825.4023647626396	0.06983333333333328	7.297866666666666	1.0
825.3990855707144	0.07859999999999995	7.233999999999999	1.0
825.3990855707144	0.0753333333333333	7.208666666666668	1.0
824.9037431450421	0.07043333333333328	7.399733333333332	1.0
824.9037431450421	0.07043333333333328	7.399999999999999	1.0
824.9037431450421	0.07619999999999995	7.399999999999999	1.0
824.3907411489039	0.07953333333333329	7.3990666666666645	1.0
824.2881761473134	0.07559999999999995	7.306133333333334	1.0
824.2877580809641	0.07489999999999995	7.1454666666666675	1.0
824.2877580809641	0.07069999999999996	7.208533333333332	1.0
824.1888197389625	0.07593333333333328	7.216	1.0
823.8903071803112	0.07329999999999995	7.279333333333334	1.0
823.781782366321	0.07659999999999996	7.030533333333333	1.0
823.781782366321	0.07346666666666661	6.9328	1.0
823.4931556818392	0.07109999999999994	6.923466666666666	1.0
822.4791878390924	0.07309999999999996	6.897733333333332	1.0
822.4791878390924	0.07309999999999996	7.069733333333334	1.0
822.4791878390924	0.07306666666666661	7.069733333333334	1.0
822.1727654627848	0.0752666666666666	7.255200000000001	1.0
822.1727634562699	0.07499999999999996	7.2252	1.0
821.9775373371153	0.07283333333333329	6.677333333333333	1.0
821.9775373371153	0.06956666666666662	6.684266666666668	1.0
821.8872035967886	0.07459999999999994	7.04	1.0
821.7759604522549	0.07743333333333327	6.879333333333334	1.0
821.7759604522549	0.07579999999999996	7.249733333333333	1.0
821.5808600126007	0.07689999999999995	7.0836	1.0
821.5823628689651	0.0753333333333333	6.943466666666667	1.0
820.9884812227028	0.08069999999999995	6.847733333333332	1.0
820.9884812227028	0.08069999999999995	6.899466666666667	1.0
820.8737814915136	0.07486666666666662	6.899466666666667	1.0
820.7796939648708	0.07969999999999995	6.7964	1.0
820.4772460365342	0.07459999999999994	6.800533333333334	1.0
820.4772460365342	0.07689999999999995	7.155466666666668	1.0
820.4752904529046	0.07823333333333328	7.3168	1.0
820.4752904529046	0.07789999999999996	7.3053333333333335	1.0
819.7872489361872	0.08096666666666662	7.337199999999999	1.0
819.7872489361872	0.07883333333333328	7.240533333333333	1.0
819.3832878844975	0.0788333333333333	7.303866666666666	1.0
818.686864075671	0.07766666666666662	6.886666666666667	1.0
818.686864075671	0.07766666666666662	7.015866666666668	1.0
818.5891515510598	0.08263333333333328	7.2990666666666675	1.0
818.5936331334657	0.07966666666666661	7.2990666666666675	1.0
818.5936331334657	0.08379999999999996	7.399999999999999	1.0
818.5936331334657	0.08063333333333329	7.399999999999999	1.0
818.2884229060131	0.08399999999999996	7.399999999999999	1.0
818.1906369223943	0.08109999999999995	7.399999999999999	1.0
818.192046387498	0.08243333333333329	7.3974666666666655	1.0
818.192046387498	0.08219999999999995	7.363066666666667	1.0
817.7917750844938	0.08083333333333328	7.399733333333332	1.0
817.4942687497867	0.08576666666666662	7.399999999999999	1.0
817.4909133660892	0.08646666666666661	7.399999999999999	1.0
817.4909133660892	0.08646666666666661	7.395733333333332	1.0
817.0037351510458	0.07993333333333329	7.285333333333335	1.0
816.9961617058798	0.08339999999999996	7.285333333333335	1.0
816.9961617058798	0.08069999999999995	7.3814666666666655	1.0
816.2037656548587	0.08103333333333328	7.321866666666667	1.0
816.2063441578232	0.08233333333333329	7.386933333333333	1.0
816.2021068984194	0.08616666666666663	7.360800000000001	1.0
816.2021068984194	0.08063333333333328	7.344799999999998	1.0
815.3192297282895	0.07926666666666662	7.161466666666666	1.0
815.3190602370258	0.08579999999999996	7.159333333333333	1.0
815.1163229656273	0.08573333333333329	7.250266666666667	1.0
815.1163229656273	0.07856666666666662	6.899466666666667	1.0
815.0169636367864	0.07856666666666662	6.601466666666667	1.0
814.7310034912842	0.07969999999999995	6.515333333333333	1.0
814.530879076382	0.08263333333333328	6.515333333333333	1.0
814.530879076382	0.07929999999999995	6.526133333333333	1.0
814.5276178974452	0.08103333333333329	6.610133333333334	1.0
814.5276848578856	0.07986666666666663	6.590933333333334	1.0
814.5276848578856	0.08093333333333329	6.622133333333334	1.0
814.5276848578856	0.08576666666666663	7.116533333333334	1.0
814.0405236094772	0.0848333333333333	7.325066666666666	1.0
813.157983648579	0.08746666666666662	6.877066666666666	1.0
813.157983648579	0.08293333333333329	6.5616	1.0
813.1569723029353	0.08033333333333328	6.5360000000000005	1.0
812.8611951632562	0.08343333333333329	6.899733333333334	1.0
812.8646860486494	0.08343333333333329	7.0057333333333345	1.0
812.8646860486494	0.08499999999999995	7.0057333333333345	1.0
811.9858529874762	0.07859999999999996	6.968533333333333	1.0
811.8214903966178	0.08756666666666663	7.252400000000001	1.0
811.4945567972809	0.08749999999999995	7.253333333333333	1.0
811.4945567972809	0.08679999999999997	7.197466666666666	1.0
811.4936114937219	0.08636666666666662	7.167999999999998	1.0
811.3864476804814	0.08429999999999994	7.0784	1.0
811.1973940357602	0.07913333333333329	6.655466666666666	1.0
811.1973940357602	0.0822333333333333	6.7573333333333325	1.0
811.1973940357602	0.08089999999999996	7.079466666666667	1.0
811.1963351828568	0.08089999999999996	7.148666666666668	1.0
811.1963351828568	0.08676666666666662	7.179600000000001	1.0
811.1931865404513	0.08583333333333329	7.179600000000001	1.0
810.7173632282745	0.08253333333333329	6.877199999999999	1.0
810.4162175065464	0.08723333333333329	6.6904	1.0
810.4162175065464	0.08293333333333329	7.0804	1.0
810.2338543081014	0.08766666666666663	7.1092	1.0
809.9360681242692	0.08723333333333329	6.9214666666666655	1.0
809.5461218914206	0.08353333333333329	6.8709333333333324	1.0
809.5461218914206	0.08523333333333329	6.721333333333334	1.0
809.5505262572947	0.08183333333333329	6.854666666666667	1.0
809.4533822005026	0.09013333333333329	7.1564000000000005	1.0
809.1593237824446	0.09013333333333329	7.043866666666666	1.0
809.1593237824446	0.08073333333333328	6.478800000000001	1.0
808.2858109894069	0.08886666666666664	6.478800000000001	1.0
808.1882770632844	0.08539999999999996	6.267066666666667	1.0
808.1882770632844	0.08146666666666662	6.2908	1.0
807.9918380786487	0.08489999999999996	6.7248	1.0
807.9878309411794	0.08336666666666662	6.7998666666666665	1.0
807.9019777506298	0.08573333333333329	6.848933333333333	1.0
807.9019777506298	0.08456666666666662	6.8839999999999995	1.0
807.9853400640241	0.08479999999999994	6.980533333333333	1.0
807.8973414551658	0.08726666666666662	7.065866666666667	1.0
807.6041217412699	0.08719999999999994	6.763733333333334	1.0
807.6041217412699	0.08143333333333329	6.3390666666666675	1.0
807.5134949393738	0.08143333333333329	6.533333333333333	1.0
807.1194710733176	0.08329999999999996	6.5520000000000005	1.0
807.1194710733176	0.08219999999999994	6.5520000000000005	1.0
807.1194710733176	0.08319999999999995	6.546400000000001	1.0
806.3501028386197	0.07846666666666662	6.448533333333333	1.0
806.2595138130808	0.08153333333333329	6.636133333333333	1.0
805.9603513690395	0.07669999999999995	6.344666666666667	1.0
805.9603513690395	0.07886666666666663	6.338133333333333	1.0
805.8656584519097	0.08016666666666662	6.524133333333334	1.0
805.8695838112974	0.07893333333333329	6.636933333333334	1.0
805.8695838112974	0.08519999999999996	6.502533333333334	1.0
804.9167535317557	0.08179999999999996	6.3238666666666665	1.0
804.6225546772065	0.08179999999999996	6.157466666666667	1.0
804.624336333812	0.07719999999999995	6.498266666666667	1.0
804.624336333812	0.08466666666666661	6.498266666666667	1.0
804.3455519893789	0.08426666666666663	6.631466666666667	1.0
804.467961397923	0.0850333333333333	6.680933333333333	1.0
804.4326188312921	0.07966666666666661	6.427200000000001	1.0
804.4326188312921	0.08439999999999995	6.304666666666668	1.0
804.2377549770945	0.07996666666666662	5.886266666666666	1.0
804.1472143619093	0.07813333333333328	5.734	1.0
803.9470491305412	0.08256666666666664	6.066133333333334	1.0
803.9470491305412	0.08436666666666663	6.226933333333333	1.0
803.558471264664	0.07546666666666663	6.081466666666667	1.0
803.377878895062	0.07546666666666663	6.646000000000001	1.0
802.7042153319355	0.08319999999999995	6.3176000000000005	1.0
802.7042153319355	0.07816666666666663	6.3176000000000005	1.0
802.6997663752239	0.07919999999999995	6.1012	1.0
802.3228179746341	0.08376666666666663	6.09	1.0
802.3228179746341	0.08696666666666664	6.103466666666667	1.0
801.373004839728	0.08246666666666663	6.2804	1.0
801.3716481274762	0.08636666666666663	6.6708	1.0
801.370803552279	0.08166666666666662	6.640266666666668	1.0
801.370803552279	0.08659999999999997	6.655733333333333	1.0
801.3706763545878	0.07929999999999995	6.569733333333334	1.0
801.2217349358655	0.07989999999999994	6.2161333333333335	1.0
801.1839685559515	0.07989999999999994	6.110666666666666	1.0
801.1839685559515	0.08039999999999996	6.1752	1.0
801.1801925497626	0.08129999999999996	6.1752	1.0
801.0879101212975	0.08256666666666662	6.337466666666668	1.0
800.9389919183184	0.07909999999999995	6.5422666666666665	1.0
800.9389919183184	0.08473333333333329	6.3372	1.0
800.8110803946124	0.08176666666666663	6.308133333333333	1.0
800.5204863134289	0.08109999999999996	6.381866666666667	1.0
800.5204863134289	0.08286666666666662	6.1975999999999996	1.0
800.5204863134289	0.07576666666666662	6.248933333333333	1.0
800.140290204492	0.08399999999999995	6.1368	1.0
