wavelength(nm)	flourescence PMT(V)	ti_saph Power (V)	Gain (V)
780.6474578224565	0.19146666666666656	4.608133333333334	1.0
780.6474578224565	0.1932999999999999	4.548933333333332	1.0
780.6474578224565	0.19203333333333325	4.511866666666668	1.0
780.2597976973286	0.18949999999999995	4.748400000000001	1.0
780.2597976973286	0.19203333333333325	4.5432	1.0
780.6233839746691	0.19143333333333323	4.599333333333334	1.0
780.6233839746691	0.19143333333333323	4.8596	1.0
781.3496823330169	0.19483333333333325	5.004933333333334	1.0
781.3496823330169	0.20493333333333325	5.004933333333334	1.0
781.3496823330169	0.20233333333333325	5.090533333333334	1.0
781.3444323556587	0.20976666666666657	5.269333333333333	1.0
781.3444323556587	0.2110666666666666	5.150666666666666	1.0
781.5183965141051	0.19429999999999992	4.668666666666667	1.0
781.5183965141051	0.19149999999999992	4.622000000000001	1.0
781.5183965141051	0.20216666666666658	4.579866666666667	1.0
781.7985910916373	0.18569999999999992	4.576666666666667	1.0
781.7985910916373	0.2052666666666666	5.2657333333333325	1.0
782.4872270517835	0.1948999999999999	4.7068	1.0
782.4872270517835	0.1948999999999999	4.711333333333334	1.0
783.0601537221056	0.19199999999999992	5.0528	1.0
783.0601537221056	0.19853333333333326	5.0528	1.0
783.0601537221056	0.21219999999999992	5.244	1.0
783.3371039439656	0.19443333333333326	4.8792	1.0
783.3371039439656	0.19459999999999994	4.7068	1.0
784.0637844305838	0.20923333333333324	5.120666666666667	1.0
784.0637844305838	0.20876666666666654	5.128266666666666	1.0
784.0637844305838	0.1960999999999999	4.914266666666666	1.0
784.0637844305838	0.2147999999999999	5.3705333333333325	1.0
784.0637844305838	0.2052333333333332	5.235733333333333	1.0
784.5198477482928	0.19966666666666658	5.046133333333334	1.0
784.5198477482928	0.1999999999999999	4.770266666666666	1.0
784.6069410586823	0.1999999999999999	4.604666666666667	1.0
784.6069410586823	0.19319999999999993	4.601733333333334	1.0
784.6069410586823	0.19223333333333326	4.601733333333334	1.0
784.8864947568845	0.20526666666666657	4.8457333333333334	1.0
784.8864947568845	0.20119999999999993	4.7604	1.0
784.8869277693208	0.20593333333333325	4.7668	1.0
784.8869277693208	0.20859999999999992	5.1384	1.0
784.8869277693208	0.2249666666666666	5.5094666666666665	1.0
786.0702701073446	0.1957999999999999	4.8802666666666665	1.0
786.0702701073446	0.2064999999999999	4.777733333333334	1.0
786.1592194629482	0.21123333333333325	5.212666666666666	1.0
786.1592194629482	0.22309999999999994	5.482933333333333	1.0
786.5266308829882	0.22309999999999994	5.335333333333333	1.0
786.5266308829882	0.2196666666666666	4.96	1.0
786.5266308829882	0.20983333333333323	4.96	1.0
786.9821093737623	0.2125999999999999	5.292133333333333	1.0
786.9821093737623	0.2208666666666666	5.357733333333332	1.0
787.7243625041713	0.22533333333333322	5.378799999999999	1.0
787.7243625041713	0.22766666666666657	5.468800000000001	1.0
787.7213112483814	0.21676666666666658	5.190666666666666	1.0
787.7213112483814	0.20779999999999993	4.979733333333334	1.0
787.7213112483814	0.2097999999999999	4.976266666666667	1.0
787.8068971947728	0.20486666666666659	4.808533333333333	1.0
787.8068971947728	0.19743333333333324	4.6903999999999995	1.0
787.9994702650775	0.2027333333333332	4.697866666666667	1.0
787.9994702650775	0.2027333333333332	4.770133333333334	1.0
787.9994702650775	0.20693333333333322	4.770133333333334	1.0
788.0890095025936	0.20833333333333326	4.820266666666666	1.0
788.0890095025936	0.20253333333333326	4.978000000000001	1.0
788.1798985170059	0.22419999999999993	5.318666666666667	1.0
788.1798985170059	0.22706666666666658	5.3964	1.0
789.3755203398413	0.22176666666666658	5.0941333333333345	1.0
789.3755203398413	0.2225666666666666	5.281466666666667	1.0
789.3755203398413	0.22526666666666653	5.489333333333334	1.0
789.6543948813624	0.22379999999999986	5.316266666666667	1.0
789.6543948813624	0.21606666666666655	5.239466666666667	1.0
790.1147428822259	0.22899999999999993	5.4764	1.0
790.1147428822259	0.22899999999999993	4.961733333333333	1.0
790.1147428822259	0.22069999999999992	4.961733333333333	1.0
790.8563484158216	0.2189333333333332	5.171733333333333	1.0
790.8563484158216	0.23379999999999995	5.5703999999999985	1.0
790.818621175503	0.23353333333333326	5.4458666666666655	1.0
790.818621175503	0.23026666666666656	5.4052	1.0
791.1279027345028	0.2152999999999999	5.0372	1.0
791.1279027345028	0.22193333333333323	5.157066666666667	1.0
791.1279027345028	0.21179999999999988	4.886933333333333	1.0
791.3205461455939	0.2102999999999999	4.794133333333334	1.0
791.3205461455939	0.24616666666666656	5.783066666666667	1.0
791.3186196541384	0.25616666666666654	5.972133333333333	1.0
791.3186196541384	0.25616666666666654	5.923866666666666	1.0
792.4351025559894	0.2543333333333333	5.158	1.0
792.4351025559894	0.22709999999999989	5.158	1.0
792.4351025559894	0.24433333333333326	5.511066666666666	1.0
792.9001353760385	0.24326666666666655	5.5738666666666665	1.0
792.9001353760385	0.2337999999999999	5.230266666666666	1.0
792.9836556478157	0.2181666666666666	5.1712	1.0
792.9836556478157	0.23563333333333322	5.130800000000001	1.0
792.9836556478157	0.23853333333333324	5.527466666666666	1.0
792.9836556478157	0.2401999999999999	5.4232	1.0
792.9836556478157	0.2565999999999999	5.7872	1.0
794.1135289259948	0.23793333333333327	5.384666666666667	1.0
794.1135289259948	0.23196666666666657	5.112666666666667	1.0
794.3002947359331	0.23196666666666657	5.579066666666666	1.0
794.3002947359331	0.24386666666666656	5.898266666666665	1.0
794.3002947359331	0.26446666666666657	5.898266666666665	1.0
794.5740971487814	0.27043333333333325	5.909466666666666	1.0
794.5740971487814	0.26793333333333325	5.9056	1.0
794.5731695637306	0.26519999999999994	5.9134666666666655	1.0
794.5731695637306	0.2543333333333333	5.797466666666667	1.0
794.5731695637306	0.25429999999999986	5.738266666666667	1.0
794.7741902983123	0.23779999999999993	5.345466666666666	1.0
794.7741902983123	0.25023333333333325	5.7736	1.0
794.7741902983123	0.2769666666666666	6.250266666666667	1.0
794.7741902983123	0.2859999999999999	6.238666666666666	1.0
795.9867754903195	0.26939999999999986	6.213333333333333	1.0
795.9867754903195	0.26939999999999986	5.503333333333333	1.0
795.9867754903195	0.24863333333333326	5.503333333333333	1.0
796.9229742754346	0.2373999999999999	5.073333333333333	1.0
796.9229742754346	0.24626666666666655	5.245066666666666	1.0
797.3027049768187	0.24793333333333323	5.3212	1.0
797.3027049768187	0.2751666666666666	5.960666666666666	1.0
797.5896231697848	0.2749666666666666	5.912799999999999	1.0
797.5896231697848	0.25606666666666655	5.65	1.0
797.5896231697848	0.2588999999999999	5.4684	1.0
797.7694786413256	0.2694666666666666	5.651466666666666	1.0
797.7694786413256	0.28063333333333323	6.158799999999999	1.0
797.7674339751715	0.28063333333333323	6.250666666666666	1.0
797.7674339751715	0.29089999999999994	6.251333333333334	1.0
797.7674339751715	0.29003333333333325	6.251333333333334	1.0
798.0550020658682	0.27933333333333327	6.030666666666667	1.0
798.0550020658682	0.2790999999999999	6.036666666666667	1.0
798.1512509643594	0.27166666666666656	5.969333333333334	1.0
798.1512509643594	0.2696666666666666	5.738133333333334	1.0
799.1875190736778	0.27633333333333326	5.768399999999999	1.0
799.1875190736778	0.26043333333333324	5.482266666666666	1.0
799.1875190736778	0.27359999999999995	5.585866666666667	1.0
799.4691317469371	0.2686333333333332	5.546533333333333	1.0
799.4691317469371	0.2570666666666666	5.359333333333333	1.0
799.9484963662371	0.2725999999999999	5.658266666666667	1.0
799.9484963662371	0.2725999999999999	5.555066666666667	1.0
799.9484963662371	0.2724999999999999	5.555066666666667	1.0
799.9484963662371	0.29293333333333327	5.918533333333333	1.0
800.8979765874432	0.2743666666666666	5.739466666666666	1.0
800.8979765874432	0.27819999999999995	5.407866666666667	1.0
800.8979765874432	0.27143333333333325	5.402666666666666	1.0
801.0790478286016	0.2778999999999999	5.699066666666666	1.0
801.0790478286016	0.2778999999999999	6.119066666666668	1.0
806.1964391727815	0.30699999999999994	6.056666666666667	1.0
806.1964391727815	0.3020666666666666	6.056666666666667	1.0
801.2758735732309	0.30029999999999996	5.973466666666667	1.0
801.2758735732309	0.3139999999999999	6.172933333333334	1.0
801.2758735732309	0.29373333333333324	5.821466666666667	1.0
801.3674534639676	0.29439999999999994	5.793866666666668	1.0
801.3674534639676	0.2939666666666666	5.800533333333334	1.0
802.6995900184315	0.2870666666666666	5.789733333333333	1.0
802.6995900184315	0.27886666666666654	5.486133333333334	1.0
802.6995900184315	0.2789666666666666	5.4364	1.0
802.70171104037	0.2869999999999999	5.400133333333333	1.0
802.70171104037	0.2869999999999999	5.401599999999999	1.0
802.7011612422745	0.27173333333333327	5.416666666666667	1.0
802.7011612422745	0.28066666666666656	5.416666666666667	1.0
803.5575045288208	0.2687666666666666	5.403066666666666	1.0
803.5575045288208	0.2954666666666666	5.606933333333332	1.0
803.5575045288208	0.30056666666666665	5.824266666666667	1.0
803.5575045288208	0.30779999999999996	5.809866666666667	1.0
803.5575045288208	0.30176666666666657	5.740533333333333	1.0
804.2334473900781	0.29266666666666663	5.4032	1.0
804.2334473900781	0.2987666666666666	5.383466666666666	1.0
804.4197075853235	0.30883333333333324	5.749333333333333	1.0
804.4197075853235	0.3151999999999999	5.871199999999999	1.0
804.4197075853235	0.3096999999999999	5.726666666666667	1.0
804.4197075853235	0.3096999999999999	5.4824	1.0
804.4197075853235	0.29639999999999994	5.4264	1.0
804.7125784118948	0.29136666666666655	5.4264	1.0
804.7125784118948	0.2886666666666666	5.429600000000001	1.0
804.8041840389845	0.3004666666666666	5.4985333333333335	1.0
804.8041840389845	0.2971333333333333	5.513066666666667	1.0
804.8041840389845	0.3495999999999999	6.378666666666668	1.0
806.0539717021493	0.3412666666666666	6.344000000000001	1.0
806.0539717021493	0.3469666666666666	6.2623999999999995	1.0
806.0539717021493	0.34106666666666663	6.21	1.0
806.0539717021493	0.3655333333333332	6.5890666666666675	1.0
806.0539717021493	0.3503666666666666	6.2729333333333335	1.0
807.0264743734925	0.3503666666666666	6.3004	1.0
807.0264743734925	0.36539999999999995	6.356266666666667	1.0
807.5970700792285	0.3569666666666666	6.356266666666667	1.0
807.5970700792285	0.344	6.043466666666666	1.0
807.6025149850742	0.3391333333333333	5.914666666666666	1.0
807.6025149850742	0.35133333333333333	6.132666666666667	1.0
807.6025149850742	0.39019999999999994	6.539200000000001	1.0
807.6025149850742	0.36526666666666663	6.1484000000000005	1.0
807.6025149850742	0.35323333333333323	6.039066666666667	1.0
807.9886702256427	0.3536666666666666	6.0396	1.0
807.9886702256427	0.34603333333333325	6.038799999999999	1.0
807.9886704561484	0.3459999999999999	5.9872	1.0
807.9886704561484	0.3535333333333333	5.925466666666666	1.0
807.9886704561484	0.3535333333333333	5.726000000000001	1.0
808.28258102247	0.33983333333333327	5.7384	1.0
808.28258102247	0.34359999999999996	5.7384	1.0
809.244479704611	0.3823666666666666	6.370533333333334	1.0
809.244479704611	0.39059999999999995	6.426800000000001	1.0
809.244479704611	0.40419999999999995	6.3744000000000005	1.0
809.6352115185774	0.40403333333333324	6.4985333333333335	1.0
809.6352115185774	0.41066666666666657	6.741866666666668	1.0
809.6365066910755	0.41626666666666656	6.780266666666666	1.0
809.6365066910755	0.4272999999999999	6.850266666666666	1.0
810.4623722983666	0.4298999999999999	6.877733333333333	1.0
810.4623722983666	0.41316666666666657	6.540933333333333	1.0
810.4623722983666	0.41316666666666657	6.405333333333334	1.0
810.9019134429735	0.4077333333333333	6.841333333333332	1.0
810.9019134429735	0.4298999999999999	6.841333333333332	1.0
811.156005600949	0.4627666666666666	7.067466666666666	1.0
811.156005600949	0.43793333333333323	6.775733333333334	1.0
811.156005600949	0.41419999999999996	6.380400000000001	1.0
811.156005600949	0.41303333333333325	6.28	1.0
811.156005600949	0.39779999999999993	6.28	1.0
811.3875025573959	0.41	6.282266666666666	1.0
811.3875025573959	0.41243333333333326	6.393333333333334	1.0
811.7748439886911	0.42829999999999996	6.607200000000001	1.0
811.7748439886911	0.43203333333333327	6.6184	1.0
811.7748439886911	0.43083333333333323	6.440133333333335	1.0
811.7728750702996	0.43083333333333323	6.437200000000001	1.0
811.7728750702996	0.4298666666666666	6.437200000000001	1.0
812.860977835632	0.4258666666666666	6.090133333333333	1.0
812.860977835632	0.44113333333333327	6.234666666666667	1.0
812.8600292261513	0.43119999999999986	6.306133333333334	1.0
812.8600292261513	0.4495999999999999	6.404266666666667	1.0
812.8600292261513	0.46619999999999984	6.5392	1.0
813.830951522507	0.49133333333333323	6.776000000000001	1.0
813.830951522507	0.4443333333333332	6.272266666666667	1.0
814.5297077612673	0.48426666666666657	6.570133333333334	1.0
814.5297077612673	0.5195666666666666	6.9868	1.0
814.7160376718672	0.4676666666666665	6.244266666666666	1.0
814.7160376718672	0.46326666666666655	5.956666666666667	1.0
814.7160376718672	0.46326666666666655	5.907733333333332	1.0
815.1120795499318	0.4532999999999999	6.6942666666666675	1.0
815.1120795499318	0.5126	6.6942666666666675	1.0
815.1150440062106	0.5268999999999999	6.795866666666667	1.0
815.1150440062106	0.5271333333333333	6.799600000000001	1.0
815.11312194185	0.5387666666666666	6.825066666666666	1.0
815.11312194185	0.5349666666666666	6.825066666666667	1.0
815.11312194185	0.5536666666666665	6.6848	1.0
816.1980002805634	0.5265999999999998	6.310266666666666	1.0
816.1980002805634	0.5158333333333333	6.3112	1.0
816.9923367745428	0.5571333333333333	6.3184	1.0
816.9923367745428	0.5941333333333334	6.429733333333334	1.0
816.9923367745428	0.6740999999999999	6.678266666666667	1.0
817.4854566747131	0.6740999999999999	6.6408000000000005	1.0
817.4854566747131	0.6736666666666665	6.6848	1.0
817.78757892242	0.6761999999999999	6.6848	1.0
817.78757892242	0.6972333333333333	6.427733333333335	1.0
818.2839488878451	0.7996666666666666	6.760666666666666	1.0
818.2839488878451	0.7968666666666666	6.779066666666667	1.0
818.2839488878451	0.7915999999999999	6.76	1.0
818.2839929138015	0.7987333333333333	6.761066666666666	1.0
818.2839929138015	0.7987000000000001	6.788933333333334	1.0
818.2839929138015	0.8250333333333333	6.675466666666667	1.0
818.2839929138015	0.8675999999999999	6.723733333333333	1.0
818.2839929138015	0.8921333333333333	6.866533333333334	1.0
818.7776838694376	0.8921333333333333	6.982533333333333	1.0
818.7776838694376	0.9092999999999999	7.1314666666666655	1.0
818.7783040007864	0.9269	7.1314666666666655	1.0
818.7783040007864	0.9762666666666666	7.143733333333333	1.0
819.6734594677814	1.0920666666666665	6.163466666666667	1.0
819.6734594677814	1.101033333333333	6.132533333333334	1.0
819.6734594677814	1.2577666666666667	6.5168	1.0
818.328445408442	0.8075666666666667	6.912533333333334	1.0
818.328445408442	0.7915	6.887866666666666	1.0
817.4882156099518	0.6808333333333333	6.612933333333333	1.0
817.4882156099518	0.6787666666666665	6.7986666666666675	1.0
817.4882156099518	0.6810666666666666	6.803999999999999	1.0
816.9990432179236	0.6738666666666666	6.870666666666666	1.0
816.9990432179236	0.6123666666666666	6.520933333333333	1.0
816.9990432179236	0.5896999999999999	6.4901333333333335	1.0
816.9990432179236	0.5416666666666665	6.322	1.0
816.2047522960387	0.5290333333333332	6.321066666666667	1.0
816.2047522960387	0.5290333333333332	6.396666666666668	1.0
816.2047522960387	0.5274333333333333	6.447733333333334	1.0
815.1120750951873	0.5342666666666666	6.447733333333334	1.0
815.1120750951873	0.5567333333333333	7.050533333333333	1.0
815.1140280669871	0.5447333333333332	6.921733333333332	1.0
815.1140280669871	0.5295333333333333	6.888933333333333	1.0
815.1130551968567	0.5298999999999999	6.839600000000001	1.0
815.1130551968567	0.5222333333333332	6.782933333333333	1.0
815.1130551968567	0.43743333333333323	5.995066666666666	1.0
814.7159484631163	0.45269999999999994	5.9036	1.0
814.7159484631163	0.45826666666666654	5.933866666666666	1.0
814.530141478327	0.5069	6.871866666666667	1.0
814.530141478327	0.5117333333333333	6.999066666666668	1.0
814.530141478327	0.5117333333333333	6.394266666666668	1.0
814.530141478327	0.4550666666666666	6.394266666666668	1.0
814.530141478327	0.4940999999999999	6.724666666666667	1.0
812.8631750778557	0.4532999999999999	6.513333333333334	1.0
812.8631750778557	0.4351666666666667	6.3428	1.0
812.8622632751991	0.4431333333333333	6.392266666666668	1.0
812.8622632751991	0.42863333333333326	6.236400000000001	1.0
812.8622632751991	0.4151999999999999	6.114	1.0
811.7770211417347	0.41803333333333326	6.3082666666666665	1.0
811.7770211417347	0.43033333333333323	6.584533333333334	1.0
811.6778705812255	0.4348333333333333	6.728000000000001	1.0
811.6778705812255	0.4508333333333333	6.7876	1.0
811.6778705812255	0.4652666666666666	7.022666666666667	1.0
811.6778705812255	0.4652666666666666	7.079866666666667	1.0
811.6778705812255	0.47039999999999993	7.081200000000001	1.0
811.3877617758302	0.46123333333333333	7.081200000000001	1.0
811.3877617758302	0.4504333333333333	6.967466666666666	1.0
810.9051750518992	0.4198333333333333	6.51	1.0
810.9051750518992	0.43863333333333326	6.7272	1.0
810.9051750518992	0.45889999999999986	7.076666666666667	1.0
810.9039832003716	0.4498999999999999	7.0869333333333335	1.0
810.9039832003716	0.4554999999999999	7.128533333333333	1.0
810.902843624661	0.4512333333333334	7.133066666666667	1.0
810.902843624661	0.44559999999999994	6.983066666666667	1.0
810.3214076004103	0.4321999999999999	6.9842666666666675	1.0
810.3214076004103	0.4321999999999999	6.835600000000001	1.0
810.3214076004103	0.4249999999999999	6.741466666666667	1.0
809.638377684206	0.41939999999999994	6.741466666666667	1.0
809.638377684206	0.4230999999999999	6.883333333333334	1.0
809.5375137385691	0.4270666666666666	6.886000000000001	1.0
809.5375137385691	0.40469999999999995	6.533733333333333	1.0
809.5375137385691	0.3770666666666666	6.2268	1.0
809.2458164974402	0.3782666666666666	6.309733333333334	1.0
809.2458164974402	0.3784666666666666	6.317466666666667	1.0
808.2835327495167	0.38033333333333325	6.410266666666668	1.0
808.2835327495167	0.38423333333333326	6.414666666666668	1.0
807.9877176359985	0.35849999999999993	5.950266666666667	1.0
807.9877176359985	0.34453333333333325	5.828133333333334	1.0
807.9877176359985	0.34453333333333325	5.799333333333333	1.0
807.9877176359985	0.34209999999999996	5.799333333333333	1.0
807.9877176359985	0.3461666666666666	5.819866666666667	1.0
807.6007064771542	0.36123333333333324	6.096266666666667	1.0
807.6007064771542	0.3698666666666666	6.402533333333334	1.0
807.6007064771542	0.3641666666666666	6.331466666666667	1.0
807.6007064771542	0.3541666666666666	6.086666666666667	1.0
807.6007064771542	0.3552666666666666	6.147733333333334	1.0
806.8637252775542	0.36826666666666663	6.376133333333334	1.0
806.8637252775542	0.33393333333333325	6.051200000000001	1.0
806.8637252775542	0.3546666666666666	6.420266666666668	1.0
806.8637252775542	0.36089999999999994	6.376133333333334	1.0
806.8637252775542	0.36089999999999994	6.0414666666666665	1.0
805.8678229939636	0.32853333333333323	5.9704	1.0
805.8678229939636	0.3328333333333332	5.9704	1.0
804.8468966772682	0.32373333333333326	6.158799999999999	1.0
804.8468966772682	0.3283999999999999	6.198666666666666	1.0
804.8468966772682	0.3170666666666666	5.8784	1.0
804.7136130967764	0.294	5.4656	1.0
804.7136130967764	0.3031666666666666	5.554666666666667	1.0
804.4212254351435	0.3094666666666666	5.8664000000000005	1.0
804.4212254351435	0.3022666666666666	5.686000000000001	1.0
804.2305586661772	0.31089999999999995	5.956933333333333	1.0
804.2305586661772	0.31766666666666654	5.9934666666666665	1.0
804.2305586661772	0.31766666666666654	5.882133333333333	1.0
804.2301108504912	0.3228	5.8084	1.0
804.2301108504912	0.30839999999999995	5.8084	1.0
803.5553198922456	0.30389999999999995	5.676533333333333	1.0
803.5553198922456	0.31326666666666664	6.086133333333333	1.0
803.5553198922456	0.3000666666666666	5.912133333333333	1.0
803.5553198922456	0.29429999999999995	5.7557333333333345	1.0
803.5553198922456	0.2853333333333332	5.546666666666666	1.0
802.7007136009202	0.28376666666666656	5.4128	1.0
802.7007136009202	0.28286666666666654	5.4068	1.0
801.3722333303803	0.27903333333333324	5.5588	1.0
801.3722333303803	0.28086666666666654	5.56	1.0
801.3722333303803	0.28086666666666654	5.565333333333333	1.0
801.3689932762666	0.2771999999999999	5.622399999999999	1.0
801.3689932762666	0.28563333333333324	6.0008	1.0
801.2763256039001	0.29766666666666663	5.694	1.0
801.2763256039001	0.2805999999999999	5.694	1.0
801.0817002810527	0.2815999999999999	5.6676	1.0
801.0817002810527	0.29016666666666663	5.894799999999998	1.0
801.0817002810527	0.28863333333333324	5.992933333333333	1.0
800.898482737398	0.26873333333333327	5.5687999999999995	1.0
800.898482737398	0.2622999999999999	5.254933333333334	1.0
800.898482737398	0.2693666666666666	5.476399999999999	1.0
800.898482737398	0.2847333333333332	5.886933333333333	1.0
800.898482737398	0.30056666666666665	6.0724	1.0
800.1330287765561	0.2723666666666666	5.5912	1.0
800.1330287765561	0.2723666666666666	5.883466666666666	1.0
799.7528582794778	0.27829999999999994	5.977733333333333	1.0
799.7528582794778	0.28869999999999996	5.977733333333333	1.0
799.1916978039387	0.27376666666666655	5.742800000000001	1.0
799.1916978039387	0.26503333333333323	5.5691999999999995	1.0
799.1916978039387	0.27336666666666654	5.5364	1.0
799.1916978039387	0.2869666666666666	5.843733333333333	1.0
799.1916978039387	0.26906666666666657	5.665866666666666	1.0
799.1916978039387	0.27329999999999993	5.947466666666667	1.0
799.1916978039387	0.28339999999999993	5.887066666666667	1.0
799.1916978039387	0.2708999999999999	5.7973333333333334	1.0
797.7673777272361	0.2843666666666666	5.8919999999999995	1.0
797.7673777272361	0.2843666666666666	6.197333333333334	1.0
797.6794691366692	0.28293333333333326	6.0658666666666665	1.0
797.6794691366692	0.28386666666666655	6.0658666666666665	1.0
797.6794691366692	0.26119999999999993	5.635733333333333	1.0
797.5834064752729	0.2578999999999999	5.410399999999999	1.0
797.5834064752729	0.2654666666666666	5.7787999999999995	1.0
797.3017125799068	0.2720999999999999	5.958799999999999	1.0
797.3017125799068	0.27386666666666654	5.878799999999999	1.0
796.166913518392	0.24126666666666655	5.240799999999999	1.0
796.166913518392	0.24343333333333325	5.220933333333333	1.0
796.166913518392	0.22516666666666657	5.000133333333333	1.0
796.1708957714744	0.23596666666666655	5.129866666666667	1.0
796.1708957714744	0.2611333333333333	5.810933333333333	1.0
795.7909141158337	0.2611333333333333	6.0132	1.0
795.7909141158337	0.26223333333333326	5.668533333333333	1.0
794.664422212841	0.24843333333333326	5.668533333333333	1.0
794.664422212841	0.23493333333333324	5.244	1.0
794.664422212841	0.24159999999999987	5.516133333333333	1.0
794.5750604656106	0.26276666666666654	5.915866666666666	1.0
794.5750604656106	0.2646666666666666	5.9319999999999995	1.0
794.4845759286984	0.2689999999999999	5.874266666666667	1.0
794.4845759286984	0.2581333333333332	5.825466666666666	1.0
794.4845759286984	0.26729999999999987	5.963333333333333	1.0
794.2026469623612	0.24593333333333325	5.473866666666666	1.0
794.2026469623612	0.23923333333333327	5.292666666666666	1.0
794.0244664176017	0.2470999999999999	5.723066666666667	1.0
794.0244664176017	0.2470999999999999	5.8684	1.0
793.5499481434662	0.2525333333333332	5.414933333333334	1.0
793.5499481434662	0.23463333333333325	5.414933333333334	1.0
793.5499481434662	0.2374333333333332	5.502799999999999	1.0
792.9890911696109	0.23189999999999988	5.157733333333333	1.0
792.9890911696109	0.2305666666666666	5.165066666666666	1.0
792.4359032829076	0.23283333333333323	5.3162666666666665	1.0
792.4359032829076	0.24253333333333327	5.760533333333333	1.0
792.4359032829076	0.23896666666666658	5.598533333333333	1.0
791.3194502247939	0.23559999999999992	5.659866666666667	1.0
791.3194502247939	0.25363333333333327	5.903066666666666	1.0
791.3184641388629	0.24803333333333322	5.962	1.0
791.3184641388629	0.2334666666666666	5.591333333333333	1.0
791.2307897828009	0.2334666666666666	5.186000000000001	1.0
791.2307897828009	0.22419999999999993	5.017466666666667	1.0
791.2307897828009	0.2114999999999999	5.017466666666667	1.0
790.9485723434441	0.22763333333333322	5.252266666666666	1.0
790.9485723434441	0.2303666666666666	5.3504	1.0
790.8543004979792	0.22879999999999992	5.2692	1.0
790.8543004979792	0.22736666666666655	5.447333333333334	1.0
790.8543004979792	0.2284999999999999	5.340933333333333	1.0
790.1137939489602	0.24093333333333325	5.537599999999999	1.0
790.1137939489602	0.2269666666666666	5.470933333333333	1.0
789.6552394783389	0.2298999999999999	5.24	1.0
789.6552394783389	0.22556666666666664	5.302933333333334	1.0
789.286080887864	0.22493333333333326	5.3284	1.0
789.286080887864	0.22493333333333326	5.211733333333333	1.0
789.286080887864	0.2175999999999999	5.398266666666666	1.0
788.180740301805	0.22529999999999992	5.398266666666666	1.0
788.180740301805	0.22949999999999993	5.4126666666666665	1.0
785.6578558885325	0.2234999999999999	5.285333333333333	1.0
785.6578558885325	0.21023333333333324	4.978666666666666	1.0
785.6578558885325	0.1926999999999999	4.642933333333334	1.0
787.7241635428813	0.20643333333333325	4.689866666666667	1.0
787.7241635428813	0.20643333333333325	4.843733333333333	1.0
787.7251125988854	0.20596666666666655	4.892799999999999	1.0
787.7251125988854	0.21706666666666657	5.193733333333333	1.0
787.3511575961489	0.22573333333333323	5.4967999999999995	1.0
787.3511575961489	0.21263333333333323	5.3632	1.0
787.3511575961489	0.21263333333333323	5.2612000000000005	1.0
786.5277630189534	0.22026666666666653	5.1768	1.0
786.5277630189534	0.21586666666666654	5.1768	1.0
786.1624874990121	0.20096666666666657	4.944400000000001	1.0
786.1624874990121	0.21276666666666658	5.128533333333333	1.0
786.1624874990121	0.2273999999999999	5.538133333333333	1.0
786.158349149285	0.22836666666666655	5.640533333333332	1.0
786.158349149285	0.2177666666666666	5.2128000000000005	1.0
784.9734704545433	0.20223333333333324	4.965199999999999	1.0
784.9734704545433	0.23259999999999992	5.519733333333333	1.0
784.9734704545433	0.20826666666666657	5.376266666666667	1.0
784.8821470166447	0.20809999999999992	5.092666666666667	1.0
784.8821470166447	0.20809999999999992	4.9356	1.0
784.7976713562844	0.19913333333333325	4.855599999999999	1.0
784.7976713562844	0.20486666666666659	4.855599999999999	1.0
784.6460848980781	0.20249999999999993	4.863999999999999	1.0
784.6460848980781	0.19253333333333325	4.633466666666666	1.0
784.6460848980781	0.20116666666666655	4.8812	1.0
784.5207589702608	0.2138333333333332	5.156533333333334	1.0
784.5207589702608	0.21369999999999995	5.238533333333333	1.0
784.2439258142732	0.21939999999999987	5.266666666666667	1.0
784.2439258142732	0.2081999999999999	5.052533333333334	1.0
784.2439258142732	0.21426666666666658	5.2616000000000005	1.0
784.2439258142732	0.21346666666666655	5.328933333333333	1.0
784.2439258142732	0.21346666666666655	5.074533333333334	1.0
783.3377795005845	0.2021999999999999	5.039333333333333	1.0
783.3377795005845	0.2064999999999999	5.039333333333333	1.0
782.8863793309223	0.2130999999999999	5.218	1.0
782.8863793309223	0.19976666666666656	4.926533333333333	1.0
782.8863793309223	0.19843333333333324	4.7484	1.0
781.7988711359737	0.19289999999999993	4.625066666666666	1.0
781.7988711359737	0.1936666666666666	4.630666666666667	1.0
781.5218389819887	0.1863666666666666	4.5203999999999995	1.0
781.5218389819887	0.1900999999999999	4.5291999999999994	1.0
781.5218389819887	0.18883333333333327	4.572800000000001	1.0
781.5215715239276	0.18276666666666658	4.528133333333334	1.0
781.5215715239276	0.19319999999999993	4.68	1.0
781.349645717941	0.19319999999999993	5.265066666666667	1.0
781.349645717941	0.21063333333333326	5.386933333333333	1.0
781.0681912899979	0.2147333333333332	5.386933333333333	1.0
781.0681912899979	0.2063666666666666	5.322933333333333	1.0
781.0681912899979	0.2136999999999999	5.186133333333334	1.0
780.3488972695337	0.2091999999999999	5.187333333333333	1.0
780.3488972695337	0.19606666666666658	4.872933333333334	1.0
780.2616879446117	0.1937666666666666	4.5656	1.0
780.2616879446117	0.19006666666666658	4.8552	1.0
780.2616879446117	0.20839999999999992	5.260666666666666	1.0
