wavelength(nm)	flourescence PMT(V)	ti_saph Power (V)	Gain (V)
820.4734600963444	0.03243333333333325	7.4193333333333324	0.5
820.4734600963444	0.033366666666666586	7.399466666666665	0.5
820.4697515222816	0.031366666666666584	7.399466666666665	0.5
820.8730405646169	0.036566666666666595	7.48	0.5
820.8730405646169	0.03699999999999992	7.48	0.5
820.9682893898299	0.03539999999999992	7.479333333333334	0.5
821.5785092102601	0.033233333333333254	7.441866666666667	0.5
821.5785092102601	0.040033333333333254	7.5128	0.5
821.5785092102601	0.03823333333333326	7.4872	0.5
821.731470728284	0.03496666666666658	7.435999999999999	0.5
821.731470728284	0.03886666666666659	7.480133333333333	0.5
821.731470728284	0.03886666666666659	7.453466666666665	0.5
821.731470728284	0.03583333333333326	7.433466666666667	0.5
822.1712896661878	0.03443333333333325	7.433466666666667	0.5
822.4736269060362	0.03949999999999993	7.480133333333333	0.5
822.4736269060362	0.03943333333333326	7.48	0.5
822.4733979127343	0.03906666666666659	7.48	0.5
823.4760781566233	0.03849999999999992	7.48	0.5
823.4760781566233	0.045266666666666594	7.5196000000000005	0.5
823.4833931216172	0.046799999999999925	7.52	0.5
823.7862003879742	0.045266666666666594	7.516666666666667	0.5
823.7862003879742	0.041533333333333255	7.492	0.5
823.8807483145979	0.041533333333333255	7.469333333333334	0.5
823.8807483145979	0.03943333333333326	7.513066666666667	0.5
824.2841924235029	0.0451666666666666	7.513066666666667	0.5
824.285576413367	0.04953333333333326	7.519866666666667	0.5
824.285576413367	0.04453333333333326	7.517466666666666	0.5
824.9027592481289	0.042666666666666596	7.508399999999998	0.5
824.9972480133412	0.03993333333333326	7.48	0.5
824.9972480133412	0.038599999999999926	7.452533333333334	0.5
825.4004676947187	0.041133333333333265	7.478133333333332	0.5
825.304807979284	0.04479999999999993	7.516666666666667	0.5
825.304807979284	0.043166666666666596	7.507199999999999	0.5
825.4005264813984	0.04513333333333327	7.5123999999999995	0.5
825.4005264813984	0.04513333333333327	7.5168	0.5
825.4005264813984	0.045699999999999935	7.518933333333334	0.5
825.5999661027245	0.0492666666666666	7.518933333333334	0.5
825.5999661027245	0.0441666666666666	7.4850666666666665	0.5
826.1126435740929	0.04109999999999992	7.479866666666667	0.5
826.8187783024902	0.04216666666666659	7.477733333333332	0.5
826.8187783024902	0.04219999999999993	7.475599999999999	0.5
826.9197428325878	0.044733333333333264	7.484000000000001	0.5
827.1218557878273	0.0451666666666666	7.484933333333333	0.5
827.1218557878273	0.04466666666666659	7.48	0.5
827.2207326704629	0.046033333333333266	7.498800000000001	0.5
827.8235480883876	0.046033333333333266	7.518533333333331	0.5
827.8235480883876	0.0476666666666666	7.519466666666667	0.5
827.8235480883876	0.05313333333333327	7.519466666666667	0.5
828.0371541563638	0.05893333333333328	7.52	0.5
828.0371541563638	0.060733333333333285	7.52	0.5
825.7528558503963	0.05923333333333327	7.52	0.5
825.7528558503963	0.053333333333333274	7.519466666666667	0.5
828.7497401420334	0.05343333333333326	7.509466666666667	0.5
828.8527620380263	0.06316666666666661	7.52	0.5
828.8527620380263	0.06193333333333328	7.52	0.5
829.2614153004496	0.0524666666666666	7.508933333333334	0.5
829.2634988875661	0.04446666666666659	7.443733333333333	0.5
829.2634988875661	0.04446666666666659	7.459733333333333	0.5
829.3664780752728	0.044066666666666594	7.499466666666667	0.5
829.5691189329092	0.04983333333333327	7.499466666666667	0.5
829.5691189329092	0.04929999999999994	7.490533333333333	0.5
830.1285117283796	0.0483666666666666	7.48	0.5
830.082883139259	0.0489666666666666	7.479466666666667	0.5
830.082883139259	0.04983333333333327	7.4807999999999995	0.5
830.4908745039917	0.0558666666666666	7.519066666666667	0.5
830.4908745039917	0.058733333333333276	7.519466666666667	0.5
830.5862390897618	0.05403333333333327	7.506	0.5
831.2031409619549	0.05093333333333327	7.481600000000001	0.5
831.2031409619549	0.05093333333333327	7.480266666666666	0.5
831.5098912549169	0.0497666666666666	7.511333333333332	0.5
831.7121924204946	0.057166666666666616	7.511333333333332	0.5
831.7121924204946	0.048099999999999934	7.479866666666667	0.5
831.7121924204946	0.04733333333333327	7.455066666666666	0.5
832.228335989913	0.05413333333333327	7.4838666666666676	0.5
832.228335989913	0.05009999999999993	7.48	0.5
832.6411108250637	0.0503666666666666	7.469333333333334	0.5
832.7416740440669	0.06253333333333327	7.509733333333333	0.5
832.7416740440669	0.058099999999999936	7.504	0.5
832.9484642818453	0.06036666666666662	7.513733333333333	0.5
832.9484642818453	0.06319999999999995	7.518666666666666	0.5
832.9543430501247	0.06319999999999995	7.505600000000001	0.5
833.5607465640817	0.05956666666666661	7.505600000000001	0.5
833.5607465640817	0.05769999999999994	7.480933333333334	0.5
833.3694930805174	0.05919999999999995	7.504	0.5
833.8806091820692	0.06753333333333328	7.520133333333333	0.5
833.8806091820692	0.06533333333333328	7.519866666666667	0.5
833.9816225113071	0.053333333333333274	7.48	0.5
834.2886788849556	0.06159999999999994	7.5073333333333325	0.5
834.2886788849556	0.07006666666666662	7.519866666666667	0.5
834.3958510407834	0.06803333333333328	7.519866666666667	0.5
834.9115236431494	0.06853333333333327	7.520133333333333	0.5
834.9115236431494	0.06853333333333327	7.52	0.5
834.9115236431494	0.07096666666666662	7.52	0.5
834.9115236431494	0.06836666666666662	7.519066666666667	0.5
835.4320787796971	0.06863333333333327	7.519466666666667	0.5
835.7399844896573	0.06843333333333329	7.5192000000000005	0.5
835.7399844896573	0.07123333333333327	7.519866666666667	0.5
835.6421698045452	0.06706666666666661	7.518933333333334	0.5
836.2548864241517	0.06813333333333328	7.515066666666665	0.5
836.2548864241517	0.07289999999999995	7.519733333333334	0.5
836.3674474581776	0.07083333333333329	7.519733333333334	0.5
836.5750580012608	0.06893333333333329	7.513733333333333	0.5
836.5750580012608	0.06893333333333329	7.519733333333334	0.5
836.7865600339557	0.07426666666666662	7.52	0.5
837.0850443933417	0.07686666666666662	7.52	0.5
837.0850443933417	0.0773333333333333	7.52	0.5
837.0512700050067	0.07429999999999995	7.519733333333334	0.5
837.0512700050067	0.07549999999999994	7.52	0.5
837.4057438039598	0.0760333333333333	7.519733333333334	0.5
837.7182620752945	0.07309999999999996	7.517600000000001	0.5
837.7182620752945	0.06553333333333329	7.487866666666665	0.5
837.91904663851	0.07126666666666663	7.504933333333334	0.5
838.3440823958512	0.07239999999999995	7.510133333333333	0.5
838.3440823958512	0.07266666666666662	7.505466666666666	0.5
838.242154490496	0.07266666666666662	7.498666666666666	0.5
838.9731338227915	0.07313333333333327	7.498666666666666	0.5
838.9731338227915	0.0789333333333333	7.52	0.5
839.178380286985	0.07979999999999997	7.52	0.5
839.282767864564	0.07959999999999996	7.519733333333334	0.5
839.282767864564	0.07906666666666663	7.5196000000000005	0.5
839.4974844536866	0.0789333333333333	7.519866666666667	0.5
839.4974844536866	0.07976666666666662	7.52	0.5
839.8052779508399	0.07806666666666663	7.519466666666667	0.5
840.1731927500498	0.07839999999999997	7.519466666666667	0.5
840.1731927500498	0.08009999999999996	7.5203999999999995	0.5
840.4398244536935	0.08009999999999996	7.52	0.5
840.5435871164381	0.08003333333333328	7.52	0.5
840.5435871164381	0.08039999999999997	7.5203999999999995	0.5
840.5435871164381	0.08573333333333326	7.524266666666666	0.5
840.9667150158012	0.08056666666666662	7.5203999999999995	0.5
840.9667150158012	0.07946666666666663	7.52	0.5
841.2743434927422	0.0787333333333333	7.518133333333332	0.5
841.2743434927422	0.0788333333333333	7.518666666666666	0.5
841.3836558950716	0.08013333333333328	7.52	0.5
841.3873268877159	0.08033333333333328	7.52	0.5
841.3873268877159	0.08019999999999997	7.52	0.5
841.9067047034066	0.08019999999999997	7.520533333333333	0.5
842.3302495401933	0.0813333333333333	7.520533333333333	0.5
842.3302495401933	0.08463333333333327	7.5229333333333335	0.5
842.7439195353597	0.08156666666666662	7.52	0.5
843.1695049585543	0.0860666666666666	7.520666666666666	0.5
843.1695049585543	0.09156666666666657	7.522533333333333	0.5
843.1695049585543	0.08549999999999992	7.520666666666666	0.5
843.2740494548058	0.08173333333333328	7.520133333333333	0.5
843.2740494548058	0.0864666666666666	7.520933333333333	0.5
844.2282339596197	0.09583333333333321	7.522400000000001	0.5
844.2282339596197	0.09499999999999988	7.521066666666666	0.5
844.3355034277903	0.09499999999999988	7.521999999999999	0.5
844.6581710787339	0.09766666666666654	7.521999999999999	0.5
844.6581710787339	0.09986666666666653	7.5232	0.5
844.7475646979591	0.09826666666666654	7.5207999999999995	0.5
845.0723892886169	0.09903333333333321	7.5216	0.5
845.0723892886169	0.0998333333333332	7.521333333333332	0.5
844.9714058613006	0.09999999999999985	7.520933333333333	0.5
844.9714058613006	0.09999999999999985	7.5215999999999985	0.5
844.9714058613006	0.0998333333333332	7.522000000000001	0.5
845.5041848924676	0.0998333333333332	7.5207999999999995	0.5
845.602292766629	0.09993333333333321	7.520133333333333	0.5
845.602292766629	0.09993333333333321	7.5207999999999995	0.5
846.3535598464393	0.1000333333333332	7.524266666666666	0.5
846.3535598464393	0.1063333333333332	7.524266666666666	0.5
846.3535598464393	0.11199999999999989	7.5268	0.5
846.8811280329796	0.10729999999999985	7.523333333333333	0.5
846.8811280329796	0.1040333333333332	7.5216	0.5
847.1016997019187	0.10096666666666654	7.519866666666667	0.5
848.0616094243559	0.10973333333333322	7.521733333333334	0.5
848.0616094243559	0.12423333333333322	7.521333333333332	0.5
848.1657463637231	0.1289999999999999	7.523733333333333	0.5
848.3793238378094	0.12683333333333324	7.520666666666666	0.5
848.3793238378094	0.12683333333333324	7.535199999999998	0.5
848.5921312242904	0.1416999999999999	7.524533333333332	0.5
848.6985576373377	0.1327999999999999	7.524533333333332	0.5
848.6985576373377	0.1405666666666666	7.5256	0.5
848.6984211913692	0.1493999999999999	7.530933333333333	0.5
848.6984211913692	0.15353333333333324	7.5364	0.5
848.6976322346513	0.14943333333333325	7.533066666666667	0.5
848.6976322346513	0.1442999999999999	7.521333333333332	0.5
848.6976322346513	0.14303333333333323	7.5207999999999995	0.5
849.0191059657421	0.14163333333333322	7.5229333333333335	0.5
849.3404750549659	0.1521666666666666	7.525066666666665	0.5
849.3404750549659	0.1521666666666666	7.5207999999999995	0.5
849.5492757982805	0.1495666666666666	7.532	0.5
850.4183501265396	0.15776666666666656	7.532	0.5
850.4183501265396	0.17509999999999992	7.542533333333332	0.5
850.6360204095529	0.17349999999999993	7.5416	0.5
850.7327104838529	0.17953333333333327	7.5299999999999985	0.5
850.7327104838529	0.1798666666666666	7.526666666666666	0.5
850.8486061883333	0.17923333333333327	7.5249333333333315	0.5
850.8486061883333	0.18213333333333326	7.525999999999999	0.5
851.7046563130702	0.19043333333333326	7.528533333333333	0.5
852.1333471935187	0.22799999999999998	7.528266666666665	0.5
852.1333471935187	0.2188333333333333	7.524266666666666	0.5
852.1422720833363	0.2188333333333333	7.522533333333334	0.5
852.1385634694551	0.2123333333333333	7.522533333333334	0.5
852.1385634694551	0.2151	7.5211999999999986	0.5
852.4676991984818	0.22323333333333334	7.522533333333333	0.5
852.564652603448	0.22563333333333332	7.520933333333333	0.5
852.564652603448	0.23276666666666665	7.5216	0.5
852.7787964101285	0.25076666666666664	7.539466666666666	0.5
853.050389295132	0.24183333333333337	7.525866666666667	0.5
853.050389295132	0.24246666666666664	7.5229333333333335	0.5
853.0001733379275	0.2527333333333333	7.532933333333333	0.5
853.0001733379275	0.25179999999999997	7.536933333333333	0.5
853.0031408793227	0.25179999999999997	7.525333333333331	0.5
853.435528852362	0.25179999999999997	7.521733333333334	0.5
853.435528852362	0.26246666666666657	7.521733333333334	0.5
854.415449825606	0.3431333333333332	7.521866666666668	0.5
854.4109302469249	0.34326666666666655	7.521066666666666	0.5
854.4109302469249	0.34536666666666654	7.521466666666665	0.5
854.5672420305455	0.35909999999999986	7.520666666666666	0.5
854.838988380478	0.3707999999999999	7.520133333333333	0.5
854.838988380478	0.3871333333333332	7.520133333333333	0.5
854.838988380478	0.5567	7.520533333333333	0.5
855.9743076979206	0.5577333333333332	7.520266666666666	0.5
855.9743076979206	0.5577333333333332	7.521333333333332	0.5
855.9743076979206	0.5901333333333332	7.530399999999999	0.5
855.9743076979206	0.6316666666666666	7.530399999999999	0.5
856.2559491358412	0.6009999999999999	7.519466666666667	0.5
856.3705150912871	0.6203666666666665	7.521733333333334	0.5
856.3705150912871	0.6742333333333332	7.529333333333333	0.5
856.3707069255196	0.6829666666666666	7.527466666666666	0.5
856.3707069255196	0.7153333333333333	7.5228	0.5
856.3707069255196	0.7453	7.53	0.5
856.5824126911364	0.7506	7.528933333333333	0.5
856.8024100210363	0.7356333333333334	7.521466666666665	0.5
856.8024100210363	0.7356333333333334	7.522133333333333	0.5
857.0187886390132	0.7616666666666667	7.520533333333333	0.5
857.0195589633214	0.7815999999999999	7.520533333333333	0.5
857.0195589633214	0.7900666666666666	7.520933333333333	0.5
858.3360156736804	0.7617999999999999	7.3796	0.5
858.3360156736804	0.4005999999999999	3.898666666666667	0.5
858.3389828151113	0.3743999999999999	3.6119999999999997	0.5
858.3389828151113	0.32273333333333326	3.0764	0.5
858.3389828151113	0.2786666666666666	2.593066666666667	0.5
858.5474865364937	0.14643333333333325	1.2388	0.5
859.8665818921626	0.055699999999999944	0.3421333333333337	0.5
859.8665818921626	0.045933333333333264	0.28693333333333354	0.5
859.9801053946487	0.045933333333333264	0.23880000000000018	0.5
860.2971334582267	0.03973333333333326	0.23880000000000018	0.5
860.2971334582267	0.036766666666666586	0.20080000000000017	0.5
860.3104238710164	0.034033333333333256	0.18786666666666682	0.5
860.3135805683653	0.029899999999999913	0.14493333333333347	0.5
860.3135805683653	0.03329999999999992	0.15813333333333346	0.5
860.4184778868121	0.030933333333333254	0.13453333333333345	0.5
860.4184778868121	0.027499999999999917	0.08533333333333341	0.5
860.6449089976387	0.026899999999999914	0.04853333333333338	0.5
860.6449089976387	0.027333333333333248	0.048666666666666705	0.5
860.6449089976387	0.020766666666666572	0.043066666666666704	0.5
860.8638383638104	0.020766666666666572	0.0402666666666667	0.5
860.9676119269571	0.021066666666666574	0.040000000000000036	0.5
860.9676119269571	0.020933333333333238	0.040000000000000036	0.5
862.1760087468668	0.030866666666666584	0.004400000000000004	0.5
862.2942622396756	0.04366666666666659	-0.03973333333333337	0.5
862.2942622396756	0.06346666666666662	-0.0398666666666667	0.5
862.358155307261	0.06303333333333327	-0.0398666666666667	0.5
862.4082210756013	0.0685333333333333	-0.040000000000000036	0.5
862.4082210756013	0.11379999999999993	-0.03773333333333337	0.5
863.8431272384038	0.1807666666666666	-0.040000000000000036	0.5
863.8431272384038	0.18099999999999994	-0.03960000000000003	0.5
863.8497301428462	0.1811666666666666	-0.04013333333333337	0.5
863.9540804497794	0.1811666666666666	-0.040000000000000036	0.5
863.9540804497794	0.18889999999999996	-0.040000000000000036	0.5
864.0626388257997	0.20649999999999996	-0.040000000000000036	0.5
864.2852685560996	0.23096666666666665	-0.0394666666666667	0.5
864.2852685560996	0.2414	-0.03920000000000003	0.5
864.2868519297828	0.25646666666666657	-0.04040000000000004	0.5
864.2868519297828	0.2611999999999999	-0.03973333333333337	0.5
864.2868519297828	0.2628666666666665	-0.03973333333333337	0.5
864.6114952868437	0.2677333333333332	-0.04013333333333337	0.5
864.7285154462427	0.3112	-0.030000000000000023	0.5
864.7285154462427	0.29953333333333326	-0.0378666666666667	0.5
864.7296099959015	0.27859999999999996	-0.040000000000000036	0.5
864.7296099959015	0.27859999999999996	-0.04013333333333337	0.5
864.7296099959015	0.2797999999999999	-0.03586666666666669	0.5
864.7285387177745	0.2873666666666666	-0.040000000000000036	0.5
864.7285026454618	0.2873666666666666	-0.04013333333333337	0.5
864.7285026454618	0.2771666666666666	-0.0402666666666667	0.5
864.727055359469	0.28006666666666663	-0.0402666666666667	0.5
864.6156137564126	0.2943999999999999	-0.040000000000000036	0.5
864.6156137564126	0.3046333333333333	-0.03586666666666669	0.5
864.4001515486691	0.2629666666666666	-0.04013333333333337	0.5
864.2863828301337	0.2599333333333332	-0.04013333333333337	0.5
864.2863828301337	0.2597999999999999	-0.03960000000000003	0.5
864.2863828301337	0.2588666666666666	-0.04013333333333337	0.5
864.2863828301337	0.23419999999999996	-0.03973333333333337	0.5
864.0671397375453	0.21659999999999996	-0.04013333333333337	0.5
863.9537550355856	0.20956666666666662	-0.04013333333333337	0.5
863.9537550355856	0.20956666666666662	-0.040000000000000036	0.5
863.9530507928935	0.21179999999999996	-0.04013333333333337	0.5
863.7311623748176	0.2015333333333333	-0.04013333333333337	0.5
863.7311623748176	0.18936666666666663	-0.04013333333333337	0.5
863.7311928619206	0.17979999999999993	-0.03973333333333337	0.5
862.5159840794984	0.17653333333333326	-0.03773333333333337	0.5
862.5159840794984	0.07979999999999995	-0.038000000000000034	0.5
862.5159840794984	0.07996666666666663	-0.0362666666666667	0.5
862.5159840794984	0.07719999999999995	-0.0378666666666667	0.5
862.2927133306822	0.05879999999999993	-0.040000000000000036	0.5
862.1792241918897	0.048133333333333264	-0.03893333333333337	0.5
862.1792241918897	0.038766666666666595	-0.02160000000000002	0.5
860.8631549855917	0.038766666666666595	0.04013333333333337	0.5
860.8621344874922	0.02309999999999991	0.04093333333333337	0.5
860.8621344874922	0.020466666666666574	0.04093333333333337	0.5
860.6426887012356	0.021866666666666573	0.04360000000000004	0.5
860.5291874277458	0.024766666666666576	0.04533333333333337	0.5
860.5291874277458	0.026333333333333247	0.048666666666666705	0.5
860.527793415886	0.02786666666666658	0.06760000000000005	0.5
860.3104825958442	0.03046666666666658	0.10373333333333341	0.5
860.3104825958442	0.03116666666666659	0.1324000000000001	0.5
860.1974851660802	0.03479999999999992	0.1701333333333335	0.5
860.1974851660802	0.037299999999999923	0.1929333333333335	0.5
860.2467784674542	0.035199999999999926	0.19760000000000016	0.5
859.963441174837	0.035199999999999926	0.21613333333333354	0.5
859.963441174837	0.035466666666666584	0.21613333333333354	0.5
859.8670798415577	0.04209999999999992	0.26773333333333355	0.5
859.7636402150972	0.04749999999999993	0.3004000000000003	0.5
859.7636402150972	0.0969666666666666	0.7534666666666668	0.5
858.436362335211	0.2686666666666666	2.4776	0.5
858.3309944971575	0.3159999999999999	2.9972	0.5
858.3309944971575	0.3475999999999999	3.3589333333333333	0.5
858.4436296215151	0.3643333333333333	3.543733333333333	0.5
857.0229151992897	0.6741666666666666	6.4632	0.5
857.0229151992897	0.8910666666666665	7.599866666666665	0.5
856.9156827997165	0.8910666666666665	7.598666666666665	0.5
856.9156827997165	0.9015999999999998	7.579599999999999	0.5
856.9156827997165	0.8211999999999999	7.579599999999999	0.5
856.9156827997165	0.7222333333333334	7.560266666666666	0.5
856.9156827997165	0.7312333333333334	7.5604	0.5
856.5823731469644	0.7349333333333334	7.560533333333333	0.5
856.5859936474628	0.7342000000000001	7.560133333333333	0.5
856.5859936474628	0.7328000000000001	7.56	0.5
856.2611077833606	0.6775	7.559866666666667	0.5
856.3701200799491	0.6859333333333333	7.56	0.5
856.3701200799491	0.6769	7.56	0.5
856.2566193819878	0.6840333333333333	7.56	0.5
856.1490840566552	0.6840333333333333	7.56	0.5
856.1490840566552	0.6714666666666667	7.56	0.5
856.0411131016762	0.6263666666666665	7.559866666666667	0.5
855.8171484651274	0.6009666666666664	7.559866666666667	0.5
855.8171484651274	0.5720999999999999	7.555599999999999	0.5
854.7320785428475	0.5151333333333332	7.5432	0.5
854.7320785428475	0.40099999999999997	7.5582666666666665	0.5
854.7330552133466	0.3862999999999999	7.554266666666666	0.5
854.4751857416654	0.37946666666666656	7.557466666666666	0.5
854.4751857416654	0.3624666666666665	7.5596000000000005	0.5
854.4751857416654	0.36583333333333323	7.5596000000000005	0.5
853.3296243693025	0.36583333333333323	7.557866666666666	0.5
853.3296243693025	0.3422333333333332	7.557866666666666	0.5
853.3296243693025	0.2879333333333332	7.56	0.5
852.9959236033495	0.2770333333333333	7.56	0.5
852.9959236033495	0.26029999999999986	7.56	0.5
852.781913854358	0.2543999999999999	7.559733333333334	0.5
852.7833912392131	0.24966666666666665	7.559866666666667	0.5
852.7833912392131	0.2560333333333332	7.56	0.5
852.5733516780161	0.2450333333333333	7.559466666666667	0.5
852.5733516780161	0.24399999999999997	7.559866666666667	0.5
852.5687986290955	0.2429333333333333	7.559733333333334	0.5
852.2444905971485	0.2429333333333333	7.559866666666667	0.5
852.2444905971485	0.24143333333333336	7.5588000000000015	0.5
852.1377027563042	0.23223333333333335	7.5588000000000015	0.5
852.1385272705497	0.21649999999999997	7.547999999999999	0.5
852.1385272705497	0.21449999999999997	7.548266666666665	0.5
850.844540944417	0.2219333333333333	7.559466666666667	0.5
850.8398087803192	0.18433333333333327	7.559466666666667	0.5
850.8398087803192	0.1804666666666666	7.558000000000001	0.5
850.526747130661	0.17749999999999994	7.553599999999999	0.5
850.6365025311425	0.17233333333333326	7.554533333333333	0.5
850.6365025311425	0.17583333333333326	7.557066666666667	0.5
850.4137685146361	0.17583333333333326	7.558266666666666	0.5
850.4137685146361	0.17299999999999993	7.559866666666667	0.5
849.4476641348116	0.1653666666666666	7.559866666666667	0.5
849.4476641348116	0.16126666666666659	7.56	0.5
849.4476641348116	0.15403333333333324	7.551733333333333	0.5
849.0181188043838	0.14666666666666658	7.543466666666666	0.5
848.8037580121902	0.1418999999999999	7.535333333333331	0.5
848.8037580121902	0.13436666666666655	7.534933333333332	0.5
848.8068194836069	0.13603333333333326	7.538133333333332	0.5
848.5917803304642	0.14586666666666656	7.552799999999999	0.5
848.5917803304642	0.14809999999999993	7.555199999999998	0.5
848.5896184583012	0.14809999999999993	7.544666666666665	0.5
848.3865007455579	0.13893333333333324	7.5548	0.5
848.3865007455579	0.14073333333333324	7.5548	0.5
848.1715001048439	0.13559999999999992	7.549333333333334	0.5
848.1715001048439	0.1284999999999999	7.537466666666666	0.5
847.9532025966444	0.1248999999999999	7.5422666666666665	0.5
847.0565716326473	0.11689999999999988	7.539333333333334	0.5
847.0565716326473	0.11103333333333319	7.549199999999999	0.5
847.0565716326473	0.10336666666666654	7.526266666666667	0.5
846.8858212327053	0.10229999999999988	7.524666666666666	0.5
846.8858212327053	0.10229999999999988	7.528266666666667	0.5
846.7754087971324	0.10579999999999987	7.549333333333334	0.5
846.4589111123196	0.10579999999999987	7.555866666666666	0.5
846.4589111123196	0.10866666666666655	7.555866666666666	0.5
845.3653574540126	0.10036666666666653	7.528533333333333	0.5
845.5078628072857	0.09999999999999985	7.527333333333333	0.5
845.5078628072857	0.09999999999999985	7.523333333333333	0.5
845.5078628072857	0.09996666666666654	7.522266666666668	0.5
845.5078628072857	0.09886666666666653	7.523466666666667	0.5
844.8687002245172	0.0992333333333332	7.5215999999999985	0.5
844.8716911009847	0.09806666666666655	7.520533333333333	0.5
844.8716911009847	0.09316666666666656	7.5203999999999995	0.5
844.5446187656095	0.09593333333333322	7.521866666666667	0.5
844.5475739029597	0.0978333333333332	7.521466666666665	0.5
844.5475739029597	0.0978333333333332	7.522399999999999	0.5
844.4412404144108	0.09593333333333322	7.522399999999999	0.5
844.2253289837059	0.09663333333333321	7.5228	0.5
844.2253289837059	0.09959999999999987	7.532533333333332	0.5
843.2710618425066	0.09866666666666654	7.532933333333332	0.5
843.175370266941	0.09506666666666655	7.529866666666667	0.5
843.175370266941	0.08673333333333325	7.521333333333332	0.5
842.8588224549331	0.08109999999999995	7.5211999999999986	0.5
842.8588224549331	0.08259999999999994	7.523066666666667	0.5
842.8542375377002	0.08356666666666661	7.523733333333333	0.5
842.3299403669495	0.08429999999999994	7.526133333333334	0.5
842.3299403669495	0.08753333333333325	7.535199999999998	0.5
841.7010813666731	0.08753333333333325	7.526133333333334	0.5
841.7010813666731	0.0834666666666666	7.521066666666666	0.5
841.7010813666731	0.08033333333333328	7.521066666666666	0.5
841.4832002184605	0.07986666666666663	7.520133333333333	0.5
841.2742578248265	0.07956666666666662	7.519866666666667	0.5
841.2742578248265	0.07899999999999996	7.5196000000000005	0.5
840.9102180097899	0.07949999999999996	7.519866666666667	0.5
840.8550629634383	0.0787333333333333	7.5192000000000005	0.5
840.8550629634383	0.08063333333333329	7.5252	0.5
840.5442430061839	0.08166666666666662	7.526533333333332	0.5
840.5442430061839	0.08203333333333328	7.5280000000000005	0.5
840.3239029246271	0.08006666666666663	7.520933333333333	0.5
840.1240180096012	0.08006666666666663	7.520133333333333	0.5
840.1240180096012	0.07989999999999996	7.520133333333333	0.5
837.1366297663427	0.07996666666666663	7.520133333333333	0.5
839.3827657171399	0.07963333333333329	7.520266666666666	0.5
839.3827657171399	0.07986666666666663	7.52	0.5
839.3827657171399	0.07909999999999996	7.52	0.5
838.9679153512808	0.07913333333333329	7.52	0.5
838.9679153512808	0.07993333333333329	7.520133333333333	0.5
838.344065406919	0.07936666666666663	7.52	0.5
838.2430425004778	0.07453333333333328	7.5196000000000005	0.5
838.2430425004778	0.07169999999999994	7.512666666666667	0.5
837.7192531866025	0.0782333333333333	7.52	0.5
837.7192531866025	0.0782333333333333	7.52	0.5
837.7192107336947	0.07889999999999996	7.52	0.5
837.4033511716999	0.07989999999999994	7.5203999999999995	0.5
837.4033511716999	0.07986666666666663	7.520933333333333	0.5
837.0976286876794	0.0754333333333333	7.52	0.5
836.7763711475582	0.0735333333333333	7.5196000000000005	0.5
836.7763711475582	0.07356666666666661	7.519866666666667	0.5
836.7763433708724	0.07249999999999995	7.52	0.5
836.529394017447	0.07026666666666662	7.517066666666667	0.5
836.529394017447	0.06813333333333328	7.507066666666666	0.5
836.3608114767625	0.06563333333333328	7.504	0.5
835.8441630888414	0.06563333333333328	7.519466666666667	0.5
835.8441630888414	0.07026666666666662	7.519466666666667	0.5
835.428796495342	0.06889999999999995	7.5188000000000015	0.5
835.428796495342	0.06816666666666661	7.5192000000000005	0.5
835.4295289775245	0.06943333333333328	7.52	0.5
834.9170745167756	0.06949999999999995	7.5196000000000005	0.5
834.9170745167756	0.06196666666666661	7.5110666666666654	0.5
834.8116819608113	0.06709999999999997	7.5196000000000005	0.5
834.2965500685548	0.07049999999999995	7.520133333333333	0.5
834.2965500685548	0.06753333333333328	7.52	0.5
834.2991562827447	0.06813333333333328	7.52	0.5
833.8827106205556	0.06813333333333328	7.52	0.5
833.8827106205556	0.06883333333333329	7.512666666666666	0.5
833.4732261815985	0.059099999999999944	7.512666666666666	0.5
833.3617395873137	0.06726666666666661	7.52	0.5
833.3617395873137	0.062466666666666615	7.517333333333332	0.5
833.0565507703238	0.05633333333333327	7.5032000000000005	0.5
833.0565507703238	0.0542666666666666	7.481466666666667	0.5
833.0560723456392	0.05896666666666661	7.512933333333334	0.5
832.7411730690203	0.05369999999999993	7.487733333333332	0.5
832.7411730690203	0.0621666666666666	7.518533333333333	0.5
832.7411730690203	0.061099999999999946	7.518266666666666	0.5
831.7673398462429	0.061099999999999946	7.474133333333333	0.5
831.7673398462429	0.04983333333333327	7.458666666666665	0.5
831.718062165573	0.048399999999999936	7.458666666666665	0.5
831.5078480203141	0.04589999999999993	7.441999999999999	0.5
831.5078480203141	0.04549999999999992	7.4585333333333335	0.5
831.209277110439	0.05346666666666659	7.5016	0.5
830.9022821169132	0.057766666666666605	7.519733333333334	0.5
830.9022821169132	0.04763333333333326	7.48	0.5
830.9022821169132	0.04893333333333326	7.482533333333333	0.5
830.9022821169132	0.05483333333333327	7.517466666666666	0.5
830.4900236643156	0.05879999999999994	7.519866666666667	0.5
830.0773577190994	0.05446666666666661	7.5145333333333335	0.5
830.0773577190994	0.05446666666666661	7.504533333333334	0.5
830.0773472425873	0.0527666666666666	7.504533333333334	0.5
829.5729030081307	0.0497666666666666	7.4848	0.5
829.5729030081307	0.04663333333333326	7.48	0.5
829.2615589261684	0.05166666666666661	7.512266666666666	0.5
829.2624783346405	0.0456666666666666	7.4812	0.5
829.2624783346405	0.04399999999999993	7.448799999999998	0.5
828.852866877077	0.04959999999999993	7.507599999999999	0.5
828.852866877077	0.05706666666666661	7.519733333333334	0.5
828.8537078096109	0.05983333333333327	7.52	0.5
828.349442173702	0.05696666666666661	7.52	0.5
828.349442173702	0.05696666666666661	7.52	0.5
828.0351247251472	0.0573666666666666	7.52	0.5
828.0382717175049	0.05969999999999994	7.52	0.5
828.0382717175049	0.056566666666666605	7.519866666666667	0.5
827.2232131873956	0.045599999999999925	7.492800000000001	0.5
827.1230260237111	0.0459666666666666	7.4896	0.5
827.1230260237111	0.041999999999999926	7.477600000000001	0.5
826.9212406409309	0.0423666666666666	7.479466666666665	0.5
826.8143750872595	0.044066666666666594	7.48	0.5
826.8143750872595	0.04246666666666659	7.4792000000000005	0.5
826.1101685283664	0.041499999999999926	7.476266666666667	0.5
826.1101685283664	0.04009999999999992	7.455866666666666	0.5
825.8047923222495	0.04009999999999992	7.467199999999999	0.5
825.9295934506425	0.03999999999999993	7.467199999999999	0.5
825.9295934506425	0.04219999999999993	7.481466666666667	0.5
825.4050239757286	0.0463666666666666	7.510666666666666	0.5
825.305340907172	0.045933333333333264	7.515066666666669	0.5
825.305340907172	0.04503333333333326	7.514266666666666	0.5
825.303742851204	0.0432666666666666	7.494666666666667	0.5
824.9937187753842	0.03949999999999993	7.475333333333333	0.5
824.9937187753842	0.038866666666666584	7.473333333333334	0.5
824.2877160657929	0.040033333333333254	7.48	0.5
824.2877160657929	0.043566666666666594	7.511066666666667	0.5
824.2877160657929	0.043566666666666594	7.515066666666667	0.5
824.2846342811918	0.04483333333333326	7.515066666666667	0.5
824.2846342811918	0.04069999999999992	7.481866666666667	0.5
823.7867274821886	0.04163333333333326	7.499733333333333	0.5
823.4757608469787	0.04483333333333326	7.518266666666666	0.5
823.4757608469787	0.045433333333333256	7.519066666666667	0.5
823.4757608469787	0.045066666666666595	7.518933333333334	0.5
822.4753293465436	0.04023333333333326	7.4842666666666675	0.5
822.4753293465436	0.03953333333333326	7.48	0.5
822.1718859521562	0.03819999999999992	7.48	0.5
822.1713321425726	0.03973333333333326	7.487733333333334	0.5
822.1713321425726	0.03973333333333326	7.48	0.5
821.8856861805122	0.03873333333333325	7.48	0.5
821.8819739385492	0.036766666666666586	7.476000000000001	0.5
821.8819739385492	0.03903333333333325	7.480266666666666	0.5
821.5794596759263	0.03843333333333326	7.477333333333333	0.5
821.5794596759263	0.036466666666666585	7.421333333333332	0.5
821.3739354654978	0.03873333333333325	7.482266666666666	0.5
820.9687868271118	0.037966666666666586	7.480133333333333	0.5
820.9687868271118	0.03453333333333325	7.4121333333333315	0.5
820.8687144691131	0.03856666666666659	7.480133333333333	0.5
820.4761702393631	0.03889999999999992	7.480533333333333	0.5
820.4761702393631	0.03889999999999992	7.460133333333333	0.5
820.4725705050039	0.03516666666666659	7.287866666666667	0.5
