wavelength(nm)	flourescence PMT(V)	ti_saph Power (V)	Gain (V)
750.1625920158286	0.4354	4.113733333333334	1.0
750.1625920158286	0.4354	4.3416	1.0
750.1625920158286	0.4573333333333333	4.092933333333334	1.0
750.324787662879	0.4218333333333332	4.092933333333334	1.0
750.324787662879	0.43913333333333326	4.078133333333334	1.0
750.657423555258	0.4497666666666667	4.335466666666667	1.0
750.657423555258	0.43609999999999993	4.207333333333334	1.0
750.9931821015116	0.4378666666666665	4.224933333333333	1.0
750.9931821015116	0.44593333333333324	4.3764	1.0
750.9931821015116	0.46426666666666655	4.389333333333334	1.0
751.4059971285091	0.4440333333333333	4.2307999999999995	1.0
751.4059971285091	0.4006666666666666	3.961466666666667	1.0
751.7394674739279	0.42403333333333326	4.158133333333334	1.0
751.7394674739279	0.42403333333333326	4.2992	1.0
752.1576150743717	0.43816666666666665	4.2992	1.0
752.1576150743717	0.43149999999999994	4.237066666666667	1.0
752.1576150743717	0.4192333333333333	4.1029333333333335	1.0
752.1576150743717	0.4558999999999999	4.402666666666667	1.0
752.1576150743717	0.43759999999999993	4.231733333333334	1.0
752.4941856299837	0.41919999999999985	4.044533333333334	1.0
752.4941856299837	0.4236666666666666	4.088666666666667	1.0
752.827450865872	0.4411999999999999	4.267333333333333	1.0
752.827450865872	0.4322	4.2089333333333325	1.0
752.827450865872	0.41889999999999994	4.118133333333334	1.0
753.1647735364795	0.41889999999999994	4.095866666666668	1.0
753.1647735364795	0.4145999999999999	4.144400000000001	1.0
753.5812377633284	0.4180666666666666	4.144400000000001	1.0
753.5812377633284	0.41893333333333327	4.254666666666667	1.0
753.9191055776342	0.4202999999999999	4.277200000000001	1.0
753.9191055776342	0.4191666666666666	4.188533333333334	1.0
753.9191055776342	0.43073333333333325	4.3958666666666675	1.0
754.0005007505107	0.4229666666666666	4.4417333333333335	1.0
754.0005007505107	0.4372333333333332	4.450000000000001	1.0
754.336487825047	0.4053333333333332	4.037733333333334	1.0
754.336487825047	0.38123333333333326	3.8686666666666665	1.0
755.0113644351766	0.39219999999999994	3.925333333333333	1.0
755.0113644351766	0.39219999999999994	3.9657333333333327	1.0
755.3506253014205	0.38419999999999993	3.9657333333333327	1.0
755.3506253014205	0.3974333333333333	4.048800000000001	1.0
755.3506253014205	0.4031666666666666	4.196133333333333	1.0
755.7694548349326	0.3936666666666666	4.1716	1.0
755.7694548349326	0.39283333333333326	4.1630666666666665	1.0
756.1101286281461	0.3845333333333333	4.014133333333334	1.0
756.1101286281461	0.3854333333333333	3.97	1.0
756.1924245926648	0.38849999999999996	4.052666666666667	1.0
756.1924245926648	0.4093666666666666	4.3340000000000005	1.0
756.1924245926648	0.39119999999999994	4.198266666666667	1.0
756.5304148556966	0.3922666666666666	4.135333333333333	1.0
756.5304148556966	0.3922666666666666	3.9657333333333336	1.0
756.8717014776864	0.37383333333333324	3.9657333333333336	1.0
756.8717014776864	0.3825333333333333	3.9576000000000007	1.0
756.9528972100683	0.40569999999999995	4.2489333333333335	1.0
756.9528972100683	0.40929999999999994	4.333733333333334	1.0
756.9528972100683	0.40146666666666664	4.281333333333333	1.0
757.2084499203412	0.37813333333333327	4.051466666666667	1.0
757.2084499203412	0.3853999999999999	4.047866666666667	1.0
757.2101962764248	0.3868999999999999	4.013866666666666	1.0
757.2101962764248	0.3748333333333333	3.9280000000000004	1.0
757.3736526486304	0.38603333333333323	4.014666666666667	1.0
757.3736526486304	0.38603333333333323	4.213733333333334	1.0
757.3736526486304	0.3820666666666666	4.392666666666667	1.0
757.3736526486304	0.40433333333333327	4.392666666666667	1.0
757.3736526486304	0.4102666666666666	4.429200000000001	1.0
757.5509422082073	0.4106666666666666	4.5336	1.0
757.5509422082073	0.4172	4.559733333333333	1.0
762.0313379257601	0.4106333333333333	4.502666666666667	1.0
762.0313379257601	0.4114666666666666	4.599333333333334	1.0
762.0313379257601	0.40253333333333324	4.5216	1.0
762.0685407409702	0.39783333333333326	4.508133333333333	1.0
762.0685407409702	0.41063333333333335	4.5716	1.0
762.0706537355011	0.4156333333333333	4.65	1.0
762.0706537355011	0.4156333333333333	4.776133333333334	1.0
762.0714700381807	0.41366666666666657	4.776133333333334	1.0
762.0714700381807	0.43116666666666664	4.850533333333333	1.0
762.0714700381807	0.4151666666666666	4.663333333333333	1.0
762.1910779732531	0.38263333333333327	4.538266666666667	1.0
762.1910779732531	0.39259999999999995	4.446133333333334	1.0
762.1910779732531	0.3907999999999999	4.350933333333334	1.0
762.1910779732531	0.36186666666666656	4.194133333333333	1.0
762.839544089438	0.3772999999999999	4.327866666666666	1.0
762.839544089438	0.40729999999999994	4.679333333333334	1.0
762.839544089438	0.40146666666666664	4.646	1.0
762.8407018799733	0.40146666666666664	4.6356	1.0
762.8407018799733	0.4037666666666666	4.742133333333334	1.0
762.8422324844207	0.4074666666666666	4.742133333333334	1.0
762.8422324844207	0.4149666666666666	4.792133333333333	1.0
763.9608559400987	0.42153333333333326	4.8824	1.0
763.9608559400987	0.4231999999999999	5.003866666666667	1.0
763.9608559400987	0.4327666666666665	4.9959999999999996	1.0
764.0456325665812	0.4247333333333333	4.933866666666667	1.0
764.0456325665812	0.41579999999999995	4.9542666666666655	1.0
764.392979225174	0.42399999999999993	4.965866666666667	1.0
764.392979225174	0.37959999999999994	4.449200000000001	1.0
764.3909538749695	0.36153333333333326	4.205866666666666	1.0
764.3909538749695	0.36153333333333326	4.7569333333333335	1.0
764.3909538749695	0.4117333333333333	5.168533333333333	1.0
764.9049382553857	0.44146666666666656	5.168533333333333	1.0
764.9049382553857	0.43833333333333335	5.309066666666666	1.0
764.904979096917	0.4448666666666666	5.272533333333334	1.0
764.904979096917	0.44343333333333323	5.193600000000001	1.0
765.3508716238945	0.42563333333333325	5.131333333333334	1.0
765.3508716238945	0.4221666666666666	5.055866666666668	1.0
765.5148266371928	0.3910666666666666	4.605200000000001	1.0
765.5148266371928	0.3940333333333333	4.614533333333334	1.0
765.5148266371928	0.39609999999999995	4.7864	1.0
765.9479586294088	0.4128333333333333	4.9	1.0
765.9479586294088	0.4128333333333333	5.0172	1.0
765.9511897213096	0.4091333333333333	5.0172	1.0
765.9511897213096	0.41189999999999993	4.8692	1.0
766.9949662269071	0.3998999999999999	4.831466666666667	1.0
766.9949662269071	0.4200999999999999	5.019333333333334	1.0
766.9949662269071	0.3776333333333333	4.499733333333333	1.0
766.9949739810586	0.39143333333333324	4.662266666666667	1.0
766.9949739810586	0.4235999999999999	5.145599999999999	1.0
767.0774679864968	0.45303333333333323	5.457866666666667	1.0
767.0774679864968	0.4529999999999999	5.4064	1.0
767.4302098371637	0.4370999999999999	5.3208	1.0
767.4302098371637	0.4370999999999999	4.710933333333334	1.0
767.4302098371637	0.3788666666666666	5.171333333333334	1.0
767.4302098371637	0.41936666666666655	5.171333333333334	1.0
767.4302098371637	0.4397333333333332	5.3996	1.0
768.1291705286657	0.43509999999999993	5.382266666666666	1.0
768.1291705286657	0.3822333333333333	4.601066666666667	1.0
768.2132701829524	0.3884333333333333	4.7056000000000004	1.0
768.2132701829524	0.3888666666666666	4.8564	1.0
768.2132701829524	0.3979999999999999	4.820933333333334	1.0
768.6457784261565	0.3830666666666666	4.724666666666667	1.0
768.6457784261565	0.37696666666666656	4.669200000000001	1.0
768.9939289418182	0.4108666666666666	5.094533333333334	1.0
768.9939289418182	0.4108666666666666	5.247999999999999	1.0
768.9939617378412	0.4223999999999999	5.244666666666667	1.0
768.9939617378412	0.4180333333333332	5.244666666666667	1.0
769.3852666528203	0.41636666666666655	5.2392	1.0
769.3852666528203	0.3980666666666666	4.914533333333334	1.0
769.3852666528203	0.3653666666666666	4.608933333333333	1.0
770.1368102698824	0.43363333333333326	5.7156	1.0
770.1368102698824	0.46373333333333333	5.880533333333333	1.0
770.4042313935513	0.4314333333333333	5.504533333333334	1.0
770.4042313935513	0.41889999999999994	5.444533333333334	1.0
770.4042313935513	0.4309333333333332	5.560266666666666	1.0
770.4042313935513	0.4249666666666666	5.495999999999999	1.0
770.4042313935513	0.4249666666666666	5.179466666666666	1.0
771.2756108228311	0.4022333333333333	4.8537333333333335	1.0
771.2756108228311	0.3906666666666666	4.8537333333333335	1.0
771.6273784436996	0.40176666666666655	5.097866666666667	1.0
771.6273784436996	0.3946333333333333	5.005333333333334	1.0
771.9828125119827	0.37299999999999994	4.719733333333334	1.0
771.9828125119827	0.35749999999999993	4.6033333333333335	1.0
771.9828125119827	0.3846666666666666	5.0184	1.0
772.069161918953	0.4129999999999999	5.349733333333334	1.0
772.069161918953	0.4371666666666666	5.4	1.0
772.1554601641128	0.4082333333333333	5.291200000000001	1.0
772.1554601641128	0.3897999999999999	4.997733333333334	1.0
772.4204437939169	0.3897999999999999	4.937066666666667	1.0
772.4204437939169	0.3902333333333333	4.817200000000001	1.0
772.4204437939169	0.3856999999999999	4.817200000000001	1.0
773.2145507900874	0.4243666666666666	5.516666666666667	1.0
773.2145507900874	0.4165999999999999	5.392133333333333	1.0
773.5694641828914	0.3816666666666666	4.799333333333334	1.0
773.5694641828914	0.3732999999999999	4.810666666666667	1.0
773.926849211816	0.41843333333333327	5.35	1.0
773.926849211816	0.4156333333333333	5.524	1.0
774.2802032101108	0.40133333333333326	5.1491999999999996	1.0
774.2802032101108	0.4022999999999999	5.022399999999999	1.0
774.2802032101108	0.41053333333333325	5.2165333333333335	1.0
774.8092908131746	0.41053333333333325	5.2104	1.0
774.8092908131746	0.40436666666666665	5.22	1.0
774.9947242509344	0.4062666666666666	5.22	1.0
774.9947242509344	0.4005666666666666	5.099466666666667	1.0
775.0807602975918	0.37823333333333325	4.850133333333333	1.0
775.0807602975918	0.3805666666666666	4.8692	1.0
775.0807602975918	0.42323333333333324	5.550799999999999	1.0
775.2510689412413	0.4323666666666666	5.7186666666666675	1.0
775.2510689412413	0.41689999999999994	5.350533333333334	1.0
775.2510133966508	0.41553333333333325	5.311866666666666	1.0
775.2510133966508	0.42079999999999995	5.481066666666667	1.0
775.4348046820813	0.4235333333333333	5.5684	1.0
775.4348046820813	0.4235333333333333	5.187866666666667	1.0
775.4348046820813	0.3998666666666666	5.501866666666666	1.0
776.3208640246196	0.41903333333333326	5.501866666666666	1.0
776.3208640246196	0.44189999999999996	5.747066666666668	1.0
776.6791020272066	0.4241666666666666	5.576533333333334	1.0
776.6791020272066	0.4166999999999999	5.2832	1.0
776.7658598300148	0.39999999999999997	5.152666666666668	1.0
776.7658598300148	0.3961666666666666	5.1896	1.0
776.7658598300148	0.44833333333333325	5.8708	1.0
777.0397222837616	0.47676666666666656	6.17	1.0
777.0397222837616	0.44323333333333326	5.795866666666667	1.0
777.482732018168	0.3968999999999999	5.1942666666666675	1.0
777.482732018168	0.3968999999999999	5.3572	1.0
777.8430711470861	0.4186666666666666	5.3572	1.0
777.8430711470861	0.4265666666666666	5.520933333333334	1.0
778.2010839457693	0.41416666666666657	5.346533333333333	1.0
778.2010839457693	0.4101333333333333	5.363466666666667	1.0
778.2010839457693	0.43743333333333323	5.6936	1.0
778.2898791937328	0.43979999999999997	5.861866666666667	1.0
778.2898791937328	0.4473333333333333	5.822400000000001	1.0
778.4739109651587	0.44173333333333326	5.791733333333333	1.0
778.4739109651587	0.46606666666666663	5.864933333333332	1.0
778.5597441000504	0.4423333333333333	5.8328	1.0
778.5597441000504	0.4423333333333333	5.5248	1.0
778.5597441000504	0.4249666666666666	5.587066666666666	1.0
778.5597441000504	0.4331333333333332	5.587066666666666	1.0
778.5597441000504	0.4269333333333333	5.544666666666666	1.0
779.8137075908259	0.4293666666666667	5.4568	1.0
779.8137075908259	0.4237333333333333	5.377466666666666	1.0
780.1768102252479	0.4513	5.823466666666667	1.0
780.1768102252479	0.4831999999999999	6.2392	1.0
780.1768102252479	0.4802666666666665	6.233733333333333	1.0
780.9002523127608	0.4773999999999999	6.1819999999999995	1.0
780.9002523127608	0.46593333333333325	6.000933333333333	1.0
780.9852242269494	0.46079999999999993	5.678933333333333	1.0
780.9852242269494	0.46079999999999993	6.093733333333333	1.0
781.3490021655495	0.46826666666666655	6.093733333333333	1.0
781.3490021655495	0.49079999999999996	6.2884	1.0
781.3490021655495	0.47816666666666663	6.1710666666666665	1.0
781.4369502893605	0.47556666666666664	6.0116	1.0
781.4369502893605	0.4554333333333333	5.831733333333333	1.0
781.7107820493238	0.4624666666666666	5.819066666666666	1.0
781.7107820493238	0.45439999999999997	5.676533333333333	1.0
781.798846314616	0.45076666666666654	5.557866666666666	1.0
781.798846314616	0.4238666666666666	5.4	1.0
781.798846314616	0.4928666666666666	6.008266666666667	1.0
782.8888115570804	0.4928666666666666	5.971466666666667	1.0
782.8888115570804	0.4879666666666666	5.589600000000001	1.0
783.3419766505987	0.44406666666666655	5.589600000000001	1.0
783.3419766505987	0.4853666666666666	5.9708	1.0
783.341565903604	0.5308666666666665	6.518533333333332	1.0
783.341565903604	0.5272333333333333	6.519866666666665	1.0
783.341565903604	0.5072999999999999	6.3248	1.0
783.341565903604	0.5153333333333333	6.3554666666666675	1.0
783.341565903604	0.4995333333333333	6.066133333333334	1.0
784.4328770509211	0.4869999999999999	5.781466666666667	1.0
784.4328770509211	0.5000999999999999	6.083333333333333	1.0
784.5247382050692	0.5092333333333333	6.322933333333333	1.0
784.5247382050692	0.5092333333333333	6.383333333333334	1.0
784.7997505978578	0.5246999999999999	6.383333333333334	1.0
784.7997505978578	0.5025999999999999	6.074933333333333	1.0
784.7997505978578	0.5223	6.281733333333333	1.0
784.8900057092671	0.5372999999999999	6.280799999999999	1.0
784.8900057092671	0.4800333333333332	5.858266666666666	1.0
784.8874501717058	0.47813333333333324	5.775333333333334	1.0
784.8874501717058	0.4793333333333333	5.7557333333333345	1.0
786.0729343206939	0.47119999999999984	5.687599999999999	1.0
786.0729343206939	0.5411999999999999	6.232533333333333	1.0
786.0729343206939	0.5430999999999999	6.236	1.0
786.075624544919	0.5430999999999999	6.2612	1.0
786.075624544919	0.5309999999999999	6.0094666666666665	1.0
786.4422602291553	0.5132666666666666	6.0094666666666665	1.0
786.4422602291553	0.5259666666666666	5.9757333333333325	1.0
786.9878449019811	0.5348666666666666	6.186133333333333	1.0
786.9878449019811	0.5666333333333333	6.437866666666667	1.0
786.9878449019811	0.5453333333333332	6.074666666666667	1.0
786.9878449019811	0.5221	5.658933333333333	1.0
786.9878449019811	0.519	5.618666666666666	1.0
787.7234058096823	0.5222333333333332	5.678	1.0
787.7234058096823	0.5921333333333333	6.405066666666668	1.0
788.0036179804167	0.6341666666666665	6.612666666666668	1.0
788.0036179804167	0.6341666666666665	6.3984000000000005	1.0
788.0036179804167	0.5997999999999999	6.3984000000000005	1.0
788.093564003102	0.5856666666666667	6.060666666666667	1.0
788.093564003102	0.5812333333333333	5.953866666666666	1.0
788.0924579775024	0.5603999999999999	5.8722666666666665	1.0
788.0924579775024	0.5394333333333333	5.641466666666665	1.0
788.0924396336751	0.5328333333333333	5.578666666666666	1.0
788.0924396336751	0.5422	5.679866666666666	1.0
788.0924396336751	0.5914333333333331	5.882	1.0
789.2871564261548	0.6337666666666667	6.082666666666667	1.0
789.2871564261548	0.6247333333333333	5.983066666666666	1.0
789.6594771195041	0.6247333333333333	6.2328	1.0
789.6594771195041	0.6574666666666666	6.655600000000001	1.0
789.6585271548568	0.7343999999999998	6.655600000000001	1.0
789.6585271548568	0.7348666666666666	6.758266666666667	1.0
787.7263067532789	0.6092666666666666	6.518533333333332	1.0
787.7263067532789	0.6092666666666666	6.117866666666667	1.0
787.6319965192405	0.5709666666666666	5.696	1.0
787.6319965192405	0.5280666666666666	5.696	1.0
787.175520119834	0.5409333333333333	5.792666666666667	1.0
787.175520119834	0.5308333333333333	5.7059999999999995	1.0
787.175520119834	0.5227666666666666	5.5397333333333325	1.0
786.445802093935	0.4773333333333333	5.401199999999999	1.0
786.445802093935	0.47839999999999994	5.472266666666667	1.0
786.1653725425773	0.48646666666666655	5.5244	1.0
786.1653725425773	0.5154666666666666	5.914266666666666	1.0
786.075235236461	0.5376333333333332	6.278133333333334	1.0
786.075235236461	0.5376333333333332	6.4224000000000006	1.0
786.075235236461	0.5566	6.438266666666668	1.0
784.9776003913366	0.5679333333333332	6.438266666666668	1.0
784.9776003913366	0.49066666666666664	5.869066666666666	1.0
784.8882837980718	0.4754999999999999	5.790533333333333	1.0
784.8882837980718	0.49793333333333334	5.962533333333333	1.0
784.8011665707174	0.504	6.010266666666667	1.0
784.8011665707174	0.5295666666666666	6.218933333333333	1.0
784.8011665707174	0.5365999999999999	6.448133333333334	1.0
784.5214343502604	0.5209999999999998	6.303066666666667	1.0
784.5214343502604	0.5054333333333333	6.2372	1.0
784.5267487778906	0.5054333333333333	6.194400000000001	1.0
784.5267487778906	0.5111999999999999	5.930266666666666	1.0
784.1590484226695	0.49169999999999997	5.930266666666666	1.0
784.1590484226695	0.4925666666666666	5.9304	1.0
784.1590484226695	0.4923	6.069733333333334	1.0
783.3406249821958	0.47426666666666656	5.768133333333333	1.0
783.3406249821958	0.5062666666666665	6.326266666666667	1.0
783.3406136158093	0.5321666666666666	6.577733333333334	1.0
783.3406136158093	0.5294333333333333	6.582400000000001	1.0
782.9744340511251	0.4594666666666666	5.771733333333334	1.0
782.9744340511251	0.4843333333333333	6.049733333333333	1.0
782.9744340511251	0.4843333333333333	6.187733333333333	1.0
781.7108615670695	0.48599999999999993	5.659066666666666	1.0
781.7108615670695	0.4545333333333332	5.659066666666666	1.0
781.7112589400572	0.4667333333333333	5.968800000000001	1.0
781.7112589400572	0.4576666666666665	6.024	1.0
781.4402744256267	0.48379999999999995	5.9850666666666665	1.0
781.4402744256267	0.4670999999999999	6.038133333333334	1.0
781.4402744256267	0.4692999999999999	6.040933333333333	1.0
781.3478701927313	0.47096666666666653	5.957866666666666	1.0
781.3478701927313	0.44663333333333316	5.631733333333333	1.0
781.3489576141579	0.44559999999999994	5.4664	1.0
781.3489576141579	0.4351999999999999	5.507066666666666	1.0
780.986548184977	0.4351999999999999	5.883466666666666	1.0
780.986548184977	0.4576333333333332	5.883466666666666	1.0
780.986548184977	0.45639999999999986	5.8322666666666665	1.0
780.1790257942076	0.4122333333333333	5.380799999999999	1.0
780.1790257942076	0.4469333333333333	5.747466666666667	1.0
780.0899103844218	0.45019999999999993	5.6997333333333335	1.0
780.0899103844218	0.42073333333333324	5.4112	1.0
780.0899103844218	0.43953333333333316	5.730533333333335	1.0
780.0899103844218	0.4531	5.912133333333333	1.0
780.0899103844218	0.42273333333333324	5.519866666666667	1.0
780.0899103844218	0.4444333333333333	5.761333333333334	1.0
780.0899103844218	0.4444333333333333	5.982933333333333	1.0
778.5634953694037	0.4597666666666666	5.843733333333333	1.0
778.5634953694037	0.4533999999999999	5.843733333333333	1.0
778.2877396289268	0.4258666666666666	5.667599999999999	1.0
778.2877396289268	0.46029999999999993	5.9315999999999995	1.0
778.2877396289268	0.46183333333333326	5.936799999999999	1.0
778.201364896667	0.4105999999999999	5.362	1.0
778.201364896667	0.4205333333333333	5.5010666666666665	1.0
778.0056214133534	0.4275666666666666	5.662533333333332	1.0
778.0056214133534	0.4304333333333332	5.539599999999999	1.0
777.0366456893094	0.41123333333333323	5.332533333333333	1.0
777.0366456893094	0.4147333333333333	5.311066666666667	1.0
777.0366456893094	0.4147333333333333	5.165600000000001	1.0
776.7681642715839	0.39036666666666664	5.164666666666667	1.0
776.7681642715839	0.3976666666666666	5.164666666666667	1.0
776.6793403667668	0.41479999999999995	5.449733333333333	1.0
776.6793403667668	0.4292666666666666	5.719600000000001	1.0
776.6793403667668	0.43629999999999997	5.515599999999999	1.0
776.6793403667668	0.3956666666666666	4.980133333333333	1.0
775.4371427164149	0.4148666666666666	5.4128	1.0
775.4371427164149	0.4425333333333333	5.911066666666666	1.0
775.4371427164149	0.44809999999999994	5.881733333333332	1.0
775.2518866418053	0.43259999999999993	5.7303999999999995	1.0
775.2518866418053	0.43583333333333324	5.654666666666667	1.0
775.1657616281159	0.43583333333333324	5.392399999999999	1.0
775.1657616281159	0.4052666666666666	5.016933333333333	1.0
774.8092139243699	0.38856666666666667	5.016933333333333	1.0
774.8092139243699	0.37679999999999997	4.997733333333333	1.0
774.8092139243699	0.4122333333333333	5.441066666666667	1.0
774.3683791641042	0.4123666666666666	5.35	1.0
774.3683791641042	0.3949	5.166133333333334	1.0
774.0112474628236	0.40103333333333324	5.239466666666667	1.0
774.0112474628236	0.39696666666666663	5.193466666666668	1.0
773.6559762931121	0.4005333333333333	5.1372	1.0
773.6559762931121	0.3924333333333333	5.0416	1.0
773.6559762931121	0.3879666666666666	5.047733333333334	1.0
773.2160584445613	0.3879666666666666	4.953866666666666	1.0
773.2160584445613	0.3920333333333333	4.856533333333333	1.0
772.4230836997934	0.3775666666666666	4.856533333333333	1.0
772.4230836997934	0.40379999999999994	5.205866666666666	1.0
772.1900999391827	0.4203666666666666	5.456933333333333	1.0
772.1900999391827	0.42856666666666665	5.547999999999999	1.0
772.1900999391827	0.3915999999999999	5.099600000000001	1.0
772.066706279436	0.3684333333333333	4.720533333333335	1.0
772.066706279436	0.36223333333333324	4.62	1.0
772.066706279436	0.3781666666666666	4.676800000000001	1.0
772.066706279436	0.3751666666666666	4.7692	1.0
771.713353142115	0.4180999999999999	5.294266666666667	1.0
771.713353142115	0.4180999999999999	5.2284	1.0
771.713353142115	0.4073666666666666	4.854933333333333	1.0
771.2764598487537	0.3933333333333333	4.854933333333333	1.0
771.2764598487537	0.3844333333333333	4.8864	1.0
770.8404337142632	0.3858333333333333	4.846266666666667	1.0
770.8404337142632	0.37636666666666657	4.701733333333333	1.0
770.4046199505661	0.3871333333333333	4.988533333333333	1.0
770.4046199505661	0.3891333333333333	5.021733333333334	1.0
770.1335946039023	0.3930333333333333	4.916266666666666	1.0
770.1335946039023	0.39023333333333327	4.871466666666667	1.0
770.1335946039023	0.38659999999999994	4.8816	1.0
769.3431818751911	0.4098666666666666	5.1468	1.0
769.3431818751911	0.4098666666666666	5.196	1.0
768.9938816916213	0.4087333333333332	5.196	1.0
768.9938816916213	0.38336666666666663	4.768266666666666	1.0
768.994646498256	0.3647333333333333	4.453466666666667	1.0
768.994646498256	0.37203333333333327	4.476533333333333	1.0
768.994646498256	0.3792999999999999	4.590533333333334	1.0
768.6461539542717	0.3794666666666666	4.7561333333333335	1.0
768.6461539542717	0.4015666666666666	5.1226666666666665	1.0
768.5620005110524	0.4224666666666666	5.1944	1.0
768.5620005110524	0.4168333333333333	5.160266666666667	1.0
768.2099850377888	0.4056666666666666	4.9352	1.0
768.2099850377888	0.4056666666666666	5.069466666666667	1.0
768.2099850377888	0.4031666666666666	4.5738666666666665	1.0
767.7779973512871	0.37429999999999997	4.5738666666666665	1.0
767.7779973512871	0.3711666666666666	4.569066666666667	1.0
767.5125643231332	0.4045333333333333	4.883866666666666	1.0
767.5125643231332	0.39416666666666655	4.862933333333333	1.0
767.0767334453487	0.3876333333333333	4.7514666666666665	1.0
767.0767334453487	0.3953333333333333	4.667066666666666	1.0
767.0767334453487	0.38233333333333325	4.6593333333333335	1.0
757.6739809439777	0.39149999999999996	4.7005333333333335	1.0
757.6739809439777	0.3882999999999999	4.663866666666667	1.0
765.9493013406018	0.3722666666666666	4.440933333333334	1.0
765.9493013406018	0.3722666666666666	4.434666666666668	1.0
765.9492169948504	0.37099999999999994	4.434666666666668	1.0
765.9492169948504	0.37549999999999994	4.405200000000001	1.0
765.9492169948504	0.3741999999999999	4.374133333333334	1.0
765.9483770072352	0.3679666666666666	4.339600000000001	1.0
765.9483770072352	0.38423333333333326	4.422	1.0
765.5154243915433	0.4056666666666666	4.7856000000000005	1.0
765.5154243915433	0.42479999999999996	5.088933333333334	1.0
764.9078658179892	0.42806666666666654	5.1936	1.0
764.9078658179892	0.4183333333333332	4.885466666666667	1.0
764.9078658179892	0.42886666666666656	4.997466666666667	1.0
764.9080441977001	0.42886666666666656	4.9589333333333325	1.0
764.9080441977001	0.42793333333333333	4.9528	1.0
764.9070169572949	0.42533333333333323	4.9528	1.0
764.9070169572949	0.4229666666666666	4.916533333333334	1.0
764.3939558854257	0.4019	4.782133333333333	1.0
764.3939558854257	0.40579999999999994	4.76	1.0
764.3939558854257	0.3921666666666666	4.6386666666666665	1.0
764.0829490969738	0.38023333333333326	4.4144000000000005	1.0
764.0829490969738	0.3801666666666666	4.443466666666668	1.0
764.0829490969738	0.38399999999999995	4.448666666666667	1.0
764.0829490969738	0.3852333333333333	4.404000000000001	1.0
763.9596686916249	0.38433333333333325	4.410133333333334	1.0
763.9596686916249	0.38433333333333325	4.3388	1.0
763.9596686916249	0.3816666666666666	4.3388	1.0
762.8413105593654	0.3565	4.032800000000001	1.0
762.8413105593654	0.3439333333333333	3.886133333333333	1.0
762.840494057586	0.3565999999999999	4.0356000000000005	1.0
762.840494057586	0.3666	4.231066666666667	1.0
762.4170548993562	0.3497333333333333	3.9607999999999994	1.0
762.4170548993562	0.3467333333333333	4.007733333333333	1.0
762.4170548993562	0.35863333333333325	3.8775999999999993	1.0
762.1530014571506	0.3576	3.9936	1.0
762.1530014571506	0.3874333333333333	4.292000000000002	1.0
762.0671161158298	0.3874333333333333	4.407200000000001	1.0
762.0671161158298	0.39076666666666665	4.401066666666667	1.0
762.0706770822916	0.3884666666666666	4.401066666666667	1.0
762.0706770822916	0.3972666666666666	4.433466666666667	1.0
762.0706770822916	0.38759999999999994	4.432666666666667	1.0
762.0694435885656	0.3982333333333332	4.3548	1.0
762.0694435885656	0.40293333333333325	4.299066666666667	1.0
758.0200044488306	0.3866333333333333	4.3148	1.0
758.0200044488306	0.39779999999999993	4.297466666666667	1.0
757.9730388692765	0.40359999999999996	4.352	1.0
757.9730388692765	0.40046666666666664	4.259200000000001	1.0
757.6333982800675	0.4232666666666666	4.448533333333333	1.0
757.6333982800675	0.4232666666666666	4.2426666666666675	1.0
757.6333982800675	0.3864999999999999	4.4034666666666675	1.0
757.2091581328137	0.41479999999999995	4.4034666666666675	1.0
757.2091581328137	0.42229999999999995	4.515866666666667	1.0
756.9536011166117	0.42403333333333326	4.520666666666666	1.0
756.9536011166117	0.4293999999999999	4.568666666666666	1.0
756.953596539227	0.43669999999999987	4.754133333333334	1.0
756.953596539227	0.45656666666666657	4.7476	1.0
756.953596539227	0.4298666666666666	4.470266666666666	1.0
756.7904061623984	0.39866666666666656	4.169066666666666	1.0
756.7904061623984	0.38876666666666654	4.2	1.0
756.529855298572	0.41869999999999996	4.456266666666667	1.0
756.529855298572	0.41869999999999996	4.5568	1.0
756.191232367868	0.43173333333333325	4.2426666666666675	1.0
756.191232367868	0.40443333333333326	4.2426666666666675	1.0
756.191232367868	0.38099999999999995	3.9641333333333333	1.0
756.1097608472161	0.3989666666666666	4.2184	1.0
756.1097608472161	0.41679999999999995	4.244266666666666	1.0
755.7361093045263	0.4120999999999999	4.216133333333333	1.0
755.7361093045263	0.4095666666666666	4.221066666666666	1.0
755.7361093045263	0.42866666666666664	4.346533333333334	1.0
755.7361093045263	0.39896666666666664	4.165466666666667	1.0
755.7361093045263	0.3868999999999999	3.9625333333333335	1.0
755.7361093045263	0.39623333333333327	3.9487999999999994	1.0
755.7361093045263	0.39623333333333327	3.923866666666666	1.0
755.7361093045263	0.38836666666666664	3.923866666666666	1.0
755.7361093045263	0.39723333333333327	4.056666666666667	1.0
754.0003975493562	0.43379999999999985	4.507733333333334	1.0
754.0003975493562	0.4542666666666666	4.650666666666668	1.0
754.0003975493562	0.43963333333333326	4.4828	1.0
753.5815863039622	0.41159999999999997	4.2164	1.0
753.5815863039622	0.44146666666666656	4.588266666666667	1.0
753.1645947532077	0.4427666666666666	4.530133333333334	1.0
753.1645947532077	0.43379999999999996	4.314266666666668	1.0
753.1664436138603	0.4380333333333332	4.3605333333333345	1.0
753.1664436138603	0.4380333333333332	4.357466666666667	1.0
753.1664436138603	0.43596666666666656	4.157733333333334	1.0
752.8288483650954	0.4231333333333333	4.157733333333334	1.0
752.8288483650954	0.4244666666666666	4.1068	1.0
752.4118302245474	0.42839999999999995	4.193733333333333	1.0
752.4118302245474	0.4234333333333333	4.1996	1.0
752.0771552621131	0.41289999999999993	3.9904000000000006	1.0
752.0771552621131	0.4191	4.036666666666667	1.0
752.0771552621131	0.44049999999999995	4.219866666666666	1.0
751.7433177915016	0.4465333333333333	4.319066666666667	1.0
751.7433177915016	0.4345666666666666	4.195333333333333	1.0
751.3289701936428	0.4345666666666666	4.366933333333334	1.0
751.3289701936428	0.4474666666666665	4.379333333333334	1.0
751.1091578202453	0.45123333333333326	4.379333333333334	1.0
751.1091578202453	0.4210333333333333	4.034800000000001	1.0
751.1091578202453	0.4052333333333332	3.871333333333333	1.0
750.9112947500865	0.41579999999999995	3.9405333333333328	1.0
750.9112947500865	0.42313333333333325	4.161866666666667	1.0
750.5765374696507	0.45423333333333327	4.277866666666666	1.0
750.5765374696507	0.4569666666666666	4.280533333333333	1.0
750.2433037864477	0.4425999999999999	4.164266666666666	1.0
750.2433037864477	0.43969999999999987	4.1954666666666665	1.0
750.2433037864477	0.4513	4.1632	1.0
750.1631781042274	0.4513	4.1488	1.0
750.1631781042274	0.4344333333333333	4.2424	1.0
