wavelength(nm)	flourescence PMT(V)	ti_saph Power (V)	Gain (V)
780.2612563079081	0.1960999999999999	4.762133333333333	1.0
780.2612563079081	0.19906666666666656	4.746666666666667	1.0
780.6224316948119	0.2133666666666666	5.188933333333334	1.0
780.6224316948119	0.2173666666666666	5.2068	1.0
780.6224316948119	0.20833333333333323	5.102400000000001	1.0
781.3467708737303	0.2082999999999999	5.2383999999999995	1.0
781.3467708737303	0.21413333333333326	5.224	1.0
781.4352305067681	0.21233333333333324	5.204666666666667	1.0
781.4352305067681	0.20016666666666658	4.778533333333333	1.0
781.5174889487203	0.20016666666666658	4.512133333333334	1.0
781.5174889487203	0.19256666666666658	4.6256	1.0
781.5174889487203	0.18719999999999992	4.751333333333334	1.0
781.5204771529178	0.2022999999999999	4.751333333333334	1.0
781.5204771529178	0.19469999999999993	4.723466666666667	1.0
782.6981655555826	0.20309999999999992	4.9741333333333335	1.0
782.6981655555826	0.1863999999999999	4.632	1.0
782.9733657314089	0.20836666666666656	4.753866666666666	1.0
782.9733657314089	0.20446666666666657	4.8074666666666666	1.0
782.9733657314089	0.21676666666666658	5.042933333333334	1.0
783.3426480450503	0.20113333333333325	4.890133333333333	1.0
783.3426480450503	0.20673333333333324	4.828933333333333	1.0
783.7899695568656	0.21039999999999992	5.121733333333333	1.0
783.7899695568656	0.22059999999999994	5.222266666666666	1.0
784.1530460742958	0.20776666666666657	4.874533333333334	1.0
784.1530460742958	0.19673333333333326	5.027200000000001	1.0
784.1530460742958	0.19673333333333326	5.1866666666666665	1.0
784.1530460742958	0.21289999999999992	5.106666666666667	1.0
784.1530460742958	0.21376666666666655	4.860533333333333	1.0
784.6070450712796	0.2009666666666666	4.525866666666666	1.0
784.6070450712796	0.19203333333333325	4.525866666666666	1.0
784.6952564761388	0.18896666666666656	4.515866666666667	1.0
784.6952564761388	0.1908999999999999	4.5376	1.0
784.6952564761388	0.19536666666666658	4.757466666666667	1.0
784.8893436619956	0.2058666666666666	4.8216	1.0
784.8893436619956	0.20016666666666658	4.697866666666667	1.0
784.9746012426134	0.21073333333333324	5.1496	1.0
784.9746012426134	0.21853333333333325	5.5418666666666665	1.0
786.0746707246598	0.21636666666666657	5.390933333333334	1.0
786.0746707246598	0.2086999999999999	4.7624	1.0
786.0746707246598	0.19853333333333326	4.710400000000001	1.0
786.0546455231404	0.19853333333333326	4.846933333333333	1.0
786.0546455231404	0.2023666666666666	5.131200000000001	1.0
786.2501797521113	0.21463333333333323	5.131200000000001	1.0
786.2501797521113	0.2135999999999999	5.012533333333334	1.0
786.9818761925175	0.20386666666666658	4.845466666666666	1.0
786.9818761925175	0.20996666666666658	5.2416	1.0
786.9818761925175	0.21806666666666658	5.200666666666667	1.0
787.6367033576622	0.22163333333333327	5.250933333333333	1.0
787.6367033576622	0.2153333333333332	5.1706666666666665	1.0
787.6367033576622	0.21303333333333324	4.964933333333334	1.0
787.6367033576622	0.2200666666666666	4.9676	1.0
787.7203383148214	0.2078999999999999	5.000666666666667	1.0
787.7203383148214	0.20663333333333325	4.946266666666666	1.0
787.7203383148214	0.20783333333333323	4.6972	1.0
787.9965655067941	0.20783333333333323	4.6575999999999995	1.0
787.9965655067941	0.19959999999999992	4.799733333333333	1.0
788.0913361112354	0.2105666666666666	5.215333333333333	1.0
788.0913361112354	0.22096666666666653	5.215333333333333	1.0
788.1764555189654	0.2276666666666666	5.4344	1.0
788.1764555189654	0.22336666666666655	5.3882666666666665	1.0
788.1764555189654	0.21503333333333322	4.972666666666666	1.0
789.2826784328166	0.21569999999999992	5.0935999999999995	1.0
789.2826784328166	0.2286999999999999	5.468933333333334	1.0
789.6549576840184	0.21896666666666656	5.2156	1.0
789.6549576840184	0.22463333333333324	5.155866666666666	1.0
790.1137108455297	0.22776666666666656	5.273333333333333	1.0
790.1137108455297	0.22573333333333323	5.3468	1.0
790.8588430160831	0.21849999999999994	5.150666666666667	1.0
790.8588430160831	0.23649999999999988	5.478933333333334	1.0
790.8588430160831	0.23649999999999988	5.480133333333334	1.0
790.8557750461272	0.23616666666666655	5.1819999999999995	1.0
790.8557750461272	0.22746666666666657	5.1819999999999995	1.0
791.0345379889216	0.2171333333333332	4.842133333333333	1.0
791.0345379889216	0.21853333333333325	4.898266666666666	1.0
791.3177712204276	0.2132999999999999	4.829066666666666	1.0
791.3177712204276	0.21919999999999987	5.179333333333333	1.0
791.3177712204276	0.24859999999999996	5.635599999999999	1.0
791.3195816622573	0.2669999999999999	5.917733333333333	1.0
791.3195816622573	0.23629999999999995	5.742533333333333	1.0
792.5232992846273	0.24473333333333325	5.343333333333334	1.0
792.5232992846273	0.24606666666666654	5.5334666666666665	1.0
792.5232992846273	0.2543333333333333	5.7628	1.0
792.9016027687201	0.2543333333333333	5.5232	1.0
792.9016027687201	0.24159999999999993	5.268	1.0
792.9881745483715	0.23069999999999993	5.268	1.0
792.9881745483715	0.24036666666666653	5.198	1.0
792.9881745483715	0.24133333333333326	5.284133333333332	1.0
792.9881745483715	0.22663333333333327	5.167466666666667	1.0
792.9881745483715	0.23466666666666658	5.2573333333333325	1.0
794.1092997891035	0.2516666666666666	5.497866666666666	1.0
794.1092997891035	0.24313333333333323	5.359333333333333	1.0
794.1978540280027	0.23823333333333324	5.228800000000001	1.0
794.1978540280027	0.2518333333333333	5.692400000000001	1.0
794.4861077259926	0.2659999999999999	5.899599999999999	1.0
794.4861077259926	0.2663	5.794933333333334	1.0
794.5751350955295	0.26669999999999994	5.8049333333333335	1.0
794.5751350955295	0.2507999999999999	5.701733333333333	1.0
794.5751350955295	0.2507999999999999	5.557466666666666	1.0
794.5775099194285	0.2525666666666666	5.383866666666666	1.0
794.5775099194285	0.24169999999999991	5.383866666666666	1.0
795.7959631649809	0.2433999999999999	5.218533333333333	1.0
795.7959631649809	0.25106666666666655	5.432799999999999	1.0
796.2052252870252	0.2769666666666666	6.114133333333334	1.0
796.2052252870252	0.2773666666666666	6.1152	1.0
796.2052252870252	0.24429999999999988	5.2892	1.0
796.1661992046892	0.23083333333333325	4.969866666666666	1.0
796.1661992046892	0.2522999999999999	5.2998666666666665	1.0
796.9264585162504	0.24783333333333327	5.1564000000000005	1.0
796.9264585162504	0.23563333333333322	5.244	1.0
797.2612352987959	0.27483333333333326	5.860133333333334	1.0
797.2612352987959	0.27483333333333326	5.706133333333334	1.0
797.2612352987959	0.25506666666666655	5.6732000000000005	1.0
797.5850162448202	0.2753666666666666	5.6732000000000005	1.0
797.5850162448202	0.26403333333333323	5.687733333333334	1.0
797.769561733112	0.2635666666666666	5.406000000000001	1.0
797.769561733112	0.28229999999999994	6.077466666666667	1.0
797.769561733112	0.29839999999999994	6.130400000000001	1.0
797.769561733112	0.2809999999999999	5.9479999999999995	1.0
797.769561733112	0.27186666666666653	5.752266666666667	1.0
798.0557044772391	0.2825333333333333	5.941066666666666	1.0
798.0557044772391	0.2779333333333332	5.91	1.0
798.0557044772391	0.2776666666666666	5.799600000000001	1.0
798.0557044772391	0.2714666666666666	5.721066666666665	1.0
799.3775010562514	0.2714666666666666	5.460133333333333	1.0
799.3775010562514	0.26603333333333323	5.559733333333332	1.0
799.3775010562514	0.27233333333333326	5.559733333333332	1.0
799.3772329448051	0.26853333333333324	5.640266666666665	1.0
799.3772329448051	0.2753333333333332	5.663866666666666	1.0
799.9420344302149	0.28353333333333325	5.8267999999999995	1.0
799.9420344302149	0.2881333333333333	5.905866666666666	1.0
800.5189140863257	0.2755666666666666	5.5168	1.0
800.5189140863257	0.29676666666666657	6.042133333333333	1.0
800.5189140863257	0.3028666666666666	5.918666666666667	1.0
800.8942872223176	0.29073333333333323	5.9526666666666666	1.0
800.8942872223176	0.2953333333333332	5.950666666666666	1.0
800.900742909143	0.2763999999999999	5.690933333333333	1.0
800.900742909143	0.29953333333333326	6.183999999999999	1.0
801.0800296262531	0.29953333333333326	6.279466666666665	1.0
801.0800296262531	0.3058666666666666	6.1593333333333335	1.0
801.0800296262531	0.3079333333333332	6.1593333333333335	1.0
801.368836575674	0.30229999999999996	6.102666666666667	1.0
801.368836575674	0.30866666666666664	6.248666666666666	1.0
801.3700408457769	0.29613333333333325	6.067066666666667	1.0
801.3700408457769	0.2922666666666666	5.8355999999999995	1.0
801.3688456588537	0.29336666666666655	5.7328	1.0
801.3688456588537	0.2850999999999999	5.770533333333334	1.0
801.3688456588537	0.29363333333333325	5.503866666666667	1.0
802.6987843582073	0.28619999999999995	5.4552000000000005	1.0
802.6987843582073	0.27859999999999996	5.4512	1.0
802.6950662494017	0.2915666666666666	5.4772	1.0
802.6950662494017	0.29453333333333326	5.513199999999999	1.0
804.0429007621889	0.29453333333333326	5.441333333333334	1.0
804.0429007621889	0.2875666666666666	5.650399999999999	1.0
804.0429007621889	0.3114333333333333	5.650399999999999	1.0
804.0429007621889	0.3121999999999999	5.830133333333333	1.0
804.0429007621889	0.2952666666666666	5.385733333333333	1.0
804.232424859604	0.2903666666666666	5.316666666666666	1.0
804.232424859604	0.30139999999999995	5.490666666666667	1.0
804.620206359845	0.30899999999999994	5.7565333333333335	1.0
804.620206359845	0.3245666666666666	5.953733333333333	1.0
804.620206359845	0.3019333333333333	5.601066666666666	1.0
804.620206359845	0.31459999999999994	5.8676	1.0
804.620206359845	0.2973666666666666	5.5287999999999995	1.0
804.7073150025418	0.29119999999999996	5.507199999999999	1.0
804.7073150025418	0.30199999999999994	5.555466666666666	1.0
805.958593154528	0.30199999999999994	6.0932	1.0
805.958593154528	0.3350666666666666	6.247866666666666	1.0
805.958593154528	0.3525666666666666	6.190133333333333	1.0
805.86923259128	0.3449333333333333	6.190133333333333	1.0
805.86923259128	0.3441999999999999	6.145599999999999	1.0
806.3429849471721	0.34769999999999995	6.0356000000000005	1.0
806.3429849471721	0.3637666666666666	6.4188	1.0
807.0265232014195	0.3261666666666666	5.928266666666666	1.0
807.0265232014195	0.344	5.963866666666667	1.0
807.0265232014195	0.3592333333333333	6.154533333333334	1.0
807.6016419311461	0.3536666666666666	5.976933333333333	1.0
807.6016419311461	0.3694333333333333	6.276266666666666	1.0
807.6005933658628	0.3824	6.5964	1.0
807.6005933658628	0.4036666666666666	6.676800000000001	1.0
807.8933365113163	0.4036666666666666	6.713733333333334	1.0
807.8933365113163	0.3904333333333333	6.5616	1.0
807.8933365113163	0.3877666666666666	6.5616	1.0
807.9884991440043	0.3759666666666666	6.3104000000000005	1.0
807.9884991440043	0.3580999999999999	6.04	1.0
808.0811310608955	0.35253333333333325	6.04	1.0
808.0811310608955	0.35413333333333324	6.0141333333333336	1.0
808.0811310608955	0.35156666666666664	5.9559999999999995	1.0
808.2798837390495	0.35096666666666665	5.872799999999999	1.0
808.2798837390495	0.3414	5.735866666666667	1.0
809.2443897931572	0.3822666666666666	6.274266666666667	1.0
809.2443897931572	0.3987333333333333	6.462133333333334	1.0
809.2443897931572	0.3987333333333333	6.428400000000001	1.0
809.2443897931572	0.4042333333333333	6.565200000000001	1.0
809.2443897931572	0.4135999999999999	6.565200000000001	1.0
809.6366338450329	0.4250999999999999	6.772666666666667	1.0
809.6366338450329	0.42869999999999986	6.745999999999999	1.0
810.4165637080565	0.4200999999999999	6.618533333333334	1.0
810.4165637080565	0.4332666666666665	6.8664000000000005	1.0
810.9033566957154	0.41623333333333323	6.508533333333333	1.0
810.9033566957154	0.43639999999999984	6.681466666666667	1.0
810.9033566957154	0.40919999999999995	6.3508000000000004	1.0
811.102004668427	0.4021999999999999	6.254	1.0
811.102004668427	0.4010666666666666	6.243333333333333	1.0
811.102004668427	0.41676666666666656	6.354000000000001	1.0
811.102004668427	0.41676666666666656	6.219333333333333	1.0
811.102004668427	0.4095333333333333	6.04	1.0
811.3834433074094	0.40619999999999995	6.04	1.0
811.3834433074094	0.38886666666666664	6.04	1.0
811.4852252036686	0.4099666666666666	6.092666666666667	1.0
811.4852252036686	0.4328999999999999	6.512666666666667	1.0
811.7763517340444	0.44853333333333323	6.783600000000001	1.0
811.7763517340444	0.45553333333333323	6.742133333333333	1.0
811.7763517340444	0.4351333333333332	6.5680000000000005	1.0
812.6565099221739	0.44549999999999995	6.518133333333333	1.0
812.6565099221739	0.4250333333333333	6.1659999999999995	1.0
812.954623845726	0.44009999999999994	6.354666666666668	1.0
812.954623845726	0.4574666666666666	6.533600000000001	1.0
812.954623845726	0.4518666666666666	6.5324	1.0
813.0479055945416	0.4518666666666666	6.2772	1.0
813.0479055945416	0.4446333333333332	6.8045333333333335	1.0
813.0479055945416	0.4850333333333332	6.8045333333333335	1.0
813.0479055945416	0.4973999999999999	6.843733333333333	1.0
814.531630351186	0.4995666666666666	6.800533333333333	1.0
814.531630351186	0.5234666666666665	7.081333333333333	1.0
814.531630351186	0.5317999999999998	6.992266666666666	1.0
814.7188903544218	0.47859999999999997	6.2556	1.0
814.7188903544218	0.4545666666666667	5.939599999999999	1.0
814.7188051238383	0.4532999999999999	5.880799999999999	1.0
814.7188051238383	0.4594666666666666	5.924133333333333	1.0
814.7188051238383	0.5248	6.7364	1.0
815.111170576122	0.5256333333333333	6.8096000000000005	1.0
815.111170576122	0.5256333333333333	6.819333333333333	1.0
815.3186926106516	0.5294666666666665	6.819333333333333	1.0
815.3186926106516	0.5309666666666666	6.892533333333334	1.0
816.2059561796173	0.5559333333333333	6.579466666666667	1.0
816.2059561796173	0.5317666666666666	6.293466666666666	1.0
816.2059561796173	0.5421999999999999	6.343866666666668	1.0
816.9974173902049	0.5523999999999999	6.375200000000001	1.0
816.9974173902049	0.6019999999999999	6.4220000000000015	1.0
817.4897651347118	0.6218333333333333	6.478133333333333	1.0
817.4897651347118	0.6702666666666666	6.666933333333334	1.0
817.7907552552135	0.6682999999999999	6.5982666666666665	1.0
817.7907552552135	0.6532999999999999	6.292933333333334	1.0
817.7907552552135	0.6532999999999999	6.604	1.0
818.2862116700373	0.7625	6.7387999999999995	1.0
818.2862116700373	0.8040333333333333	6.7387999999999995	1.0
818.281990978506	0.7789333333333334	6.698266666666667	1.0
818.281990978506	0.7898666666666666	6.7173333333333325	1.0
818.281990978506	0.7889666666666666	6.680533333333334	1.0
818.5813850277094	0.8016999999999999	6.383466666666668	1.0
818.5813850277094	0.7927	6.354533333333333	1.0
818.777387418982	0.8630333333333332	6.658266666666667	1.0
818.777387418982	0.9831666666666669	7.235733333333334	1.0
818.777387418982	1.0553	7.0108	1.0
818.777387418982	1.0916	6.116666666666667	1.0
818.777387418982	1.2098333333333333	6.386933333333334	1.0
819.8797286448174	1.2098333333333333	4.745866666666667	1.0
819.8797286448174	1.0088333333333332	4.745866666666667	1.0
818.286580421083	0.8023666666666666	6.849333333333334	1.0
818.286580421083	0.8170666666666667	6.8148	1.0
818.286580421083	0.7995666666666666	6.758400000000001	1.0
818.286580421083	0.7995666666666666	6.587066666666668	1.0
818.286580421083	0.7085999999999999	6.335333333333334	1.0
817.4918428887339	0.6523333333333333	6.335333333333334	1.0
817.4918428887339	0.6697666666666665	6.754	1.0
816.9927965835318	0.6788	6.765733333333333	1.0
816.9927965835318	0.5936999999999999	6.519999999999999	1.0
816.9927965835318	0.5901666666666666	6.507066666666666	1.0
816.2039770112467	0.5379333333333333	6.365733333333336	1.0
816.2039770112467	0.5413	6.360000000000001	1.0
815.3152369003261	0.5357	6.408133333333335	1.0
815.3152369003261	0.5561333333333333	7.0668000000000015	1.0
815.3152369003261	0.5378999999999998	6.827066666666666	1.0
815.1144677242822	0.5439666666666667	6.853066666666667	1.0
815.1144677242822	0.5439666666666667	6.857333333333333	1.0
815.0141980987985	0.5441333333333332	6.775066666666667	1.0
815.0141980987985	0.5221666666666666	6.775066666666667	1.0
815.0141980987985	0.47773333333333323	6.3424000000000005	1.0
815.0141980987985	0.4474333333333333	5.9704	1.0
815.0141980987985	0.44929999999999987	5.8865333333333325	1.0
814.5291165639047	0.49906666666666655	6.598933333333334	1.0
814.5291165639047	0.5281999999999999	7.113733333333333	1.0
814.0353772393561	0.5277999999999999	7.089600000000001	1.0
814.0353772393561	0.49083333333333334	6.8004	1.0
814.0353772393561	0.47876666666666656	6.7028	1.0
813.0498845607343	0.4619333333333333	6.584533333333334	1.0
813.0498845607343	0.4770999999999999	6.769866666666667	1.0
812.8582916741507	0.4503333333333332	6.4824	1.0
812.8582916741507	0.4503333333333332	6.448800000000001	1.0
811.7753859558699	0.4534666666666665	6.448800000000001	1.0
811.7753859558699	0.4426666666666666	6.304133333333334	1.0
811.7753859558699	0.42563333333333325	6.28	1.0
811.7747760093198	0.42023333333333324	6.2844	1.0
811.7747760093198	0.43743333333333323	6.545600000000001	1.0
811.3846988550163	0.4431999999999999	6.628666666666667	1.0
811.3846988550163	0.44803333333333334	6.849466666666667	1.0
811.3835411361991	0.4691333333333332	6.9372	1.0
811.3835411361991	0.4594666666666666	6.999466666666667	1.0
811.3835411361991	0.4569333333333333	6.928133333333333	1.0
811.3330956197867	0.4320333333333332	6.7484	1.0
811.3330956197867	0.4472666666666666	6.8461333333333325	1.0
810.8050526173678	0.4472666666666666	6.7973333333333334	1.0
810.8050526173678	0.4317	6.866666666666666	1.0
810.8050526173678	0.44026666666666664	6.866666666666666	1.0
810.9055314434665	0.44946666666666657	6.989733333333334	1.0
810.9055314434665	0.4368333333333333	6.7904	1.0
810.4141821689647	0.4299333333333332	6.723333333333334	1.0
810.4141821689647	0.44649999999999995	6.912399999999999	1.0
810.4141821689647	0.39233333333333326	6.393600000000001	1.0
810.4141821689647	0.40773333333333334	6.526666666666666	1.0
810.4141821689647	0.41379999999999995	6.599066666666667	1.0
809.6365715779907	0.39559999999999995	6.413466666666666	1.0
809.6365715779907	0.3722333333333333	6.0268	1.0
808.2820895360909	0.3647666666666666	6.002266666666667	1.0
808.2820895360909	0.36576666666666663	6.128666666666667	1.0
808.2806700425793	0.38393333333333324	6.359866666666668	1.0
808.2806700425793	0.38393333333333324	6.020133333333333	1.0
808.2806700425793	0.3549	6.020133333333333	1.0
807.9910002953167	0.3367333333333333	5.778266666666667	1.0
807.9910002953167	0.33606666666666657	5.72	1.0
807.9910002953167	0.3527999999999999	5.899466666666665	1.0
807.9910002953167	0.3796999999999999	6.192666666666667	1.0
807.9910002953167	0.3768333333333333	6.356800000000002	1.0
807.6006130960133	0.38433333333333325	6.638133333333333	1.0
807.6006130960133	0.39609999999999995	6.6476	1.0
807.599605475876	0.3897999999999999	6.639733333333334	1.0
807.599605475876	0.37079999999999996	6.421200000000001	1.0
806.8267586868521	0.36566666666666664	6.327733333333334	1.0
806.8267586868521	0.36566666666666664	6.505066666666667	1.0
806.8267586868521	0.36699999999999994	6.505066666666667	1.0
806.0529969566088	0.35956666666666665	6.370933333333335	1.0
806.0529969566088	0.3658666666666666	6.584133333333333	1.0
806.0529702068753	0.3733666666666666	6.696666666666666	1.0
806.0529702068753	0.36119999999999997	6.368266666666667	1.0
804.8016014290304	0.3369999999999999	6.082533333333334	1.0
804.8016014290304	0.3320999999999999	5.943733333333333	1.0
804.8016014290304	0.30849999999999994	5.780266666666666	1.0
804.8016014290304	0.29743333333333327	5.420133333333333	1.0
804.8016014290304	0.29753333333333326	5.326533333333334	1.0
804.5204943130134	0.2865999999999999	5.242266666666666	1.0
804.5204943130134	0.3103999999999999	5.754133333333334	1.0
804.5204943130134	0.3055999999999999	5.671333333333332	1.0
804.2359604950763	0.3142999999999999	6.0648	1.0
804.2359604950763	0.3142999999999999	6.088533333333333	1.0
804.2307479267419	0.32849999999999996	5.965466666666666	1.0
804.2307479267419	0.31809999999999994	5.965466666666666	1.0
803.845305316971	0.3106999999999999	5.570666666666666	1.0
803.845305316971	0.2970666666666666	5.420933333333332	1.0
803.845305316971	0.3078999999999999	5.878266666666667	1.0
802.7918423006103	0.3046333333333333	5.808933333333333	1.0
802.7918423006103	0.3170333333333333	6.1433333333333335	1.0
802.7009265971483	0.3031999999999999	5.827333333333333	1.0
802.7009265971483	0.2900333333333332	5.403199999999999	1.0
802.4099837054474	0.27583333333333326	5.322666666666667	1.0
802.4099837054474	0.2825666666666666	5.424266666666667	1.0
802.4099837054474	0.2693999999999999	5.481466666666667	1.0
801.3678107152116	0.2774666666666666	5.496266666666667	1.0
801.3678107152116	0.2774666666666666	5.5416	1.0
801.2742629379073	0.2729999999999999	6.110266666666666	1.0
801.2742629379073	0.30776666666666663	6.110266666666666	1.0
801.2742629379073	0.3043333333333333	6.0316	1.0
801.0797434210725	0.29726666666666657	5.895199999999999	1.0
801.0797434210725	0.2969666666666666	5.906266666666665	1.0
801.0810663913035	0.29109999999999997	5.863199999999999	1.0
801.0810663913035	0.27756666666666663	5.4964	1.0
800.6975352518282	0.25889999999999996	5.290133333333333	1.0
800.6975352518282	0.2807666666666666	5.5524000000000004	1.0
800.6975352518282	0.3018999999999999	6.118933333333333	1.0
800.1364885680961	0.3065666666666666	6.2598666666666665	1.0
800.1364885680961	0.2792333333333333	5.6068	1.0
799.7537318778938	0.2792333333333333	6.0756000000000006	1.0
799.7537318778938	0.2929999999999999	6.0756000000000006	1.0
799.7537318778938	0.2723999999999999	5.6952	1.0
799.4679585984612	0.2656666666666666	5.560666666666667	1.0
799.4679585984612	0.2551666666666666	5.425866666666667	1.0
798.9964913220686	0.2606333333333332	5.4552	1.0
798.9964913220686	0.2855999999999999	5.880799999999999	1.0
797.9671099230993	0.2620666666666666	5.444533333333334	1.0
797.9671099230993	0.2795333333333333	5.7564	1.0
797.9671099230993	0.27776666666666655	5.904133333333332	1.0
797.8605612879437	0.2744999999999999	5.773866666666666	1.0
797.8605612879437	0.28699999999999987	6.057733333333333	1.0
797.8605612879437	0.28699999999999987	6.038	1.0
797.8605612879437	0.28359999999999996	5.863333333333333	1.0
797.8605612879437	0.2845666666666666	5.863333333333333	1.0
797.8605612879437	0.2589999999999999	5.4664	1.0
797.8605612879437	0.2661333333333333	5.562666666666666	1.0
797.3014291779439	0.26446666666666657	5.820399999999999	1.0
797.3014291779439	0.27533333333333326	5.890666666666666	1.0
796.8295524733812	0.2502999999999999	5.258933333333332	1.0
796.8295524733812	0.24026666666666657	5.205333333333333	1.0
796.8295524733812	0.23966666666666658	4.975599999999999	1.0
796.1695043870902	0.2323999999999999	4.921866666666666	1.0
796.1695043870902	0.26089999999999997	5.631733333333333	1.0
795.7035610704819	0.26993333333333325	6.021333333333334	1.0
795.7035610704819	0.26993333333333325	5.5196000000000005	1.0
794.6678308328878	0.24496666666666655	5.797066666666666	1.0
794.6678308328878	0.2528999999999999	5.797066666666666	1.0
794.6678308328878	0.2423666666666666	5.380533333333333	1.0
794.5775331945941	0.2667666666666666	5.874933333333333	1.0
794.5775331945941	0.25846666666666657	5.880533333333333	1.0
794.1997926010962	0.25143333333333323	5.755733333333333	1.0
794.1997926010962	0.2431666666666666	5.661066666666667	1.0
794.1997926010962	0.23329999999999992	5.464666666666666	1.0
794.1999323505178	0.23463333333333325	5.176	1.0
794.1999323505178	0.23256666666666662	5.047466666666668	1.0
793.7385973447043	0.24003333333333327	5.4013333333333335	1.0
793.7385973447043	0.23783333333333323	5.3432	1.0
792.8986201349485	0.23783333333333323	5.3652	1.0
792.8986201349485	0.23696666666666658	5.072133333333333	1.0
792.8986201349485	0.2272666666666666	5.072133333333333	1.0
793.7541501197833	0.21339999999999995	5.0528	1.0
793.7541501197833	0.24349999999999988	5.611199999999999	1.0
792.5254933517766	0.25826666666666653	5.964933333333333	1.0
792.5254933517766	0.2521333333333332	5.912933333333333	1.0
792.5254933517766	0.23403333333333326	5.4596	1.0
791.317516932737	0.2376666666666666	5.671866666666666	1.0
791.317516932737	0.2425999999999999	5.8755999999999995	1.0
791.317516932737	0.2453333333333332	5.776533333333333	1.0
791.317516932737	0.22569999999999993	5.331733333333333	1.0
791.2247612492213	0.20819999999999994	4.781466666666667	1.0
791.2247612492213	0.21373333333333325	4.8187999999999995	1.0
791.2247612492213	0.21373333333333325	4.9468	1.0
790.9468258003625	0.21769999999999992	4.859333333333334	1.0
790.9468258003625	0.2163999999999999	4.859333333333334	1.0
790.8606945201184	0.22703333333333323	5.140666666666667	1.0
790.8606945201184	0.23566666666666658	5.438533333333334	1.0
790.8606945201184	0.2274333333333332	5.3116	1.0
790.483622815293	0.2116666666666666	4.829466666666667	1.0
790.483622815293	0.2179999999999999	5.159066666666668	1.0
789.6541658408413	0.22529999999999992	5.150533333333334	1.0
789.6541658408413	0.22936666666666658	5.159866666666667	1.0
789.2846610834815	0.22863333333333324	5.396933333333333	1.0
789.2846610834815	0.22079999999999989	5.324666666666667	1.0
789.2846610834815	0.21786666666666663	5.2518666666666665	1.0
788.178713256671	0.21786666666666663	5.392799999999999	1.0
788.178713256671	0.22519999999999987	5.4128	1.0
788.0927003704918	0.2305666666666666	5.4128	1.0
788.0927003704918	0.22096666666666653	5.280933333333334	1.0
788.0927003704918	0.20939999999999992	4.776000000000001	1.0
787.8119058703279	0.20263333333333325	4.7172	1.0
787.8119058703279	0.2171666666666666	4.914933333333334	1.0
787.720904919653	0.20553333333333326	4.976933333333334	1.0
787.720904919653	0.2146333333333333	5.004533333333333	1.0
787.3527967031935	0.22379999999999994	5.2336	1.0
787.3527967031935	0.2219666666666666	5.228	1.0
787.3527967031935	0.22133333333333327	5.3164	1.0
786.9856907887342	0.2238999999999999	5.255600000000001	1.0
786.9856907887342	0.2073999999999999	5.078533333333334	1.0
786.2474741733052	0.2073999999999999	4.922533333333333	1.0
786.2474741733052	0.20433333333333323	4.922533333333333	1.0
786.0716885388146	0.21579999999999988	5.116933333333334	1.0
786.0716885388146	0.21959999999999988	5.126133333333334	1.0
786.0716885388146	0.20023333333333324	4.8238666666666665	1.0
784.974906913501	0.2047666666666666	4.7452	1.0
784.974906913501	0.2124666666666666	5.2434666666666665	1.0
784.9727380621442	0.22436666666666658	5.4952	1.0
784.9727380621442	0.21519999999999992	5.358666666666666	1.0
784.9727380621442	0.21063333333333323	4.932133333333333	1.0
784.6951979420164	0.20679999999999993	5.0416	1.0
784.6951979420164	0.19063333333333327	4.695600000000001	1.0
784.607929337148	0.1911999999999999	4.5552	1.0
784.607929337148	0.1911999999999999	4.5625333333333336	1.0
784.5221924186216	0.19206666666666658	4.925333333333333	1.0
784.5221924186216	0.20563333333333325	4.925333333333333	1.0
784.5221924186216	0.21683333333333327	5.159333333333333	1.0
784.1565960030784	0.21483333333333324	5.1932	1.0
784.1565960030784	0.21113333333333326	5.032800000000001	1.0
783.787567831226	0.19949999999999993	4.887333333333333	1.0
783.787567831226	0.21569999999999992	5.298666666666667	1.0
783.787567831226	0.21033333333333323	4.981866666666667	1.0
783.4238024870727	0.19813333333333324	4.8773333333333335	1.0
783.4238024870727	0.2060666666666666	4.943866666666667	1.0
782.8888644074399	0.20553333333333326	4.877066666666666	1.0
782.8888644074399	0.1960999999999999	4.744	1.0
781.7935854085473	0.19289999999999993	4.649733333333334	1.0
781.7935854085473	0.19289999999999993	4.951733333333333	1.0
781.7935854085473	0.2077666666666666	4.5894666666666675	1.0
781.7072050055567	0.18263333333333326	4.5894666666666675	1.0
781.7072050055567	0.19653333333333325	4.6036	1.0
781.5221589101515	0.1926666666666666	4.588533333333333	1.0
781.5221589101515	0.18773333333333325	4.639733333333334	1.0
781.5221589101515	0.20253333333333323	4.913466666666666	1.0
781.347677808446	0.21849999999999994	5.325866666666666	1.0
781.347677808446	0.2048999999999999	5.3244	1.0
781.06993269776	0.2045666666666666	5.155866666666667	1.0
781.06993269776	0.2042999999999999	4.8671999999999995	1.0
780.3455106412362	0.19836666666666658	5.0520000000000005	1.0
780.3455106412362	0.19169999999999993	4.886933333333334	1.0
780.3455106412362	0.1863999999999999	4.593733333333333	1.0
