wavelength(nm)	flourescence PMT(V)	ti_saph Power (V)	Gain (V)
750.3225220536782	0.4147999999999999	3.993066666666667	1.0
750.3225220536782	0.43543333333333334	4.1516	1.0
750.3225220536782	0.4546666666666666	4.353733333333334	1.0
750.9121753656128	0.4341	4.056800000000001	1.0
750.9121753656128	0.41913333333333325	4.0174666666666665	1.0
751.071156427114	0.44393333333333324	4.264133333333334	1.0
751.071156427114	0.4418999999999999	4.324400000000001	1.0
751.071156427114	0.4275999999999999	4.209733333333333	1.0
751.071156427114	0.43333333333333324	4.1536	1.0
751.071156427114	0.4478333333333332	4.365066666666668	1.0
751.071156427114	0.4478333333333332	4.266133333333334	1.0
752.1562984288279	0.4305999999999999	4.455733333333334	1.0
752.1562984288279	0.45129999999999987	4.455733333333334	1.0
752.1598805238333	0.45359999999999995	4.559866666666667	1.0
752.1598805238333	0.4649999999999998	4.660933333333334	1.0
752.1598805238333	0.44346666666666656	4.469200000000001	1.0
752.9086524043767	0.4177333333333333	4.102533333333334	1.0
752.9086524043767	0.4101999999999999	4.112666666666668	1.0
753.1648410904953	0.4181999999999999	4.139466666666667	1.0
753.1648410904953	0.4078666666666666	4.110399999999999	1.0
753.1648410904953	0.41493333333333327	4.12	1.0
753.1649059099688	0.3966333333333333	4.096266666666667	1.0
753.1649059099688	0.3966333333333333	4.125466666666666	1.0
753.5819700709326	0.4059999999999999	4.2356	1.0
753.5819700709326	0.42099999999999993	4.2356	1.0
753.5819700709326	0.42599999999999993	4.277866666666666	1.0
753.9996014859415	0.4134999999999999	4.234133333333334	1.0
753.9996014859415	0.44869999999999993	4.440933333333334	1.0
753.997717030233	0.43583333333333335	4.454266666666667	1.0
753.997717030233	0.41393333333333326	4.158933333333333	1.0
753.997717030233	0.38583333333333325	3.891333333333333	1.0
754.635918049806	0.37849999999999995	3.980933333333333	1.0
754.635918049806	0.3905666666666666	4.005199999999999	1.0
755.0945752262614	0.42783333333333323	4.431733333333335	1.0
755.0945752262614	0.42783333333333323	4.165866666666666	1.0
755.0945752262614	0.39999999999999997	4.165866666666666	1.0
755.8518404923797	0.3882333333333332	4.112533333333334	1.0
755.8518404923797	0.39599999999999996	4.0336	1.0
756.1092616740182	0.37849999999999995	4.024666666666667	1.0
756.1092616740182	0.38359999999999994	3.964666666666666	1.0
756.1092616740182	0.37826666666666664	4.085733333333334	1.0
756.4485864442406	0.39999999999999997	4.279866666666667	1.0
756.4485864442406	0.39649999999999996	4.205733333333333	1.0
756.5296035089123	0.39369999999999994	4.146266666666667	1.0
756.5296035089123	0.39069999999999994	4.0352	1.0
756.5296035089123	0.3870666666666666	4.076533333333334	1.0
756.8685825517738	0.3870666666666666	4.308666666666666	1.0
756.8685825517738	0.4042333333333333	4.308666666666666	1.0
756.9533664619904	0.4168333333333333	4.367466666666667	1.0
756.9533664619904	0.40069999999999995	4.365333333333335	1.0
757.1278621225002	0.4003666666666666	4.274133333333334	1.0
757.1278621225002	0.39583333333333326	4.150133333333334	1.0
757.1278621225002	0.38359999999999994	3.9816000000000003	1.0
757.2906888633839	0.3731999999999999	3.9757333333333333	1.0
757.2906888633839	0.3818999999999999	4.010266666666666	1.0
757.6319498572494	0.4039	4.3724	1.0
757.6319498572494	0.40153333333333324	4.332933333333334	1.0
757.6319498572494	0.40153333333333324	4.2132000000000005	1.0
757.6319498572494	0.3881666666666666	4.2496	1.0
757.6319498572494	0.39466666666666667	4.2496	1.0
758.0185226689752	0.39533333333333326	4.2780000000000005	1.0
758.0185226689752	0.40383333333333327	4.377866666666667	1.0
758.0185226689752	0.3966333333333333	4.448666666666666	1.0
762.0691814055422	0.4112666666666666	4.555866666666667	1.0
762.0691814055422	0.40113333333333323	4.5709333333333335	1.0
762.0683120450246	0.40879999999999994	4.576933333333333	1.0
762.0683120450246	0.4005999999999999	4.6384	1.0
762.0683120450246	0.42513333333333325	4.777333333333334	1.0
762.071378468027	0.4180333333333333	4.91	1.0
762.071378468027	0.4180333333333333	4.910266666666667	1.0
762.1515024515917	0.4310999999999999	4.910266666666667	1.0
762.1515024515917	0.4142333333333333	4.862666666666667	1.0
762.1515024515917	0.4138333333333333	4.7358666666666664	1.0
762.1515024515917	0.3921333333333333	4.464133333333334	1.0
762.1515024515917	0.36383333333333323	4.1868	1.0
762.7635734640833	0.36426666666666657	4.1692	1.0
762.7635734640833	0.3945333333333333	4.5604000000000005	1.0
762.7635734640833	0.3939	4.568133333333334	1.0
762.8414026032983	0.3938666666666666	4.5596000000000005	1.0
762.8414026032983	0.39856666666666657	4.6068	1.0
763.9603713529124	0.39856666666666657	4.7632	1.0
763.9603713529124	0.4083333333333332	4.912799999999999	1.0
763.9603713529124	0.41953333333333326	4.912799999999999	1.0
763.9603713529124	0.4228666666666666	4.999066666666667	1.0
763.9603713529124	0.42776666666666663	5.032533333333334	1.0
764.0439414147564	0.4281999999999999	5.0225333333333335	1.0
764.0439414147564	0.42103333333333326	4.9396	1.0
764.0439414147564	0.41319999999999996	4.9184	1.0
764.3888800506849	0.39366666666666666	4.612	1.0
764.3888800506849	0.3574333333333333	4.246266666666667	1.0
764.3927021923315	0.37856666666666666	4.458933333333333	1.0
764.3927021923315	0.4046333333333333	4.811333333333333	1.0
764.9071789873532	0.4046333333333333	5.298666666666667	1.0
764.9071789873532	0.43103333333333327	5.451866666666667	1.0
764.9071789873532	0.4523333333333333	5.451866666666667	1.0
764.998822836222	0.4598	5.376666666666667	1.0
764.998822836222	0.42853333333333327	5.201466666666667	1.0
765.5139891874524	0.43186666666666657	5.1012	1.0
765.5139891874524	0.39546666666666663	4.6748	1.0
765.5139891874524	0.3811666666666666	4.5952	1.0
765.5182095452856	0.3822666666666666	4.6	1.0
765.5182095452856	0.38573333333333326	4.5952	1.0
765.9476668184102	0.4095333333333333	4.905733333333333	1.0
765.9476668184102	0.4134999999999999	4.938800000000001	1.0
765.9476668184102	0.4134999999999999	5.004133333333334	1.0
765.9485110243498	0.4214666666666666	5.004133333333334	1.0
765.9485110243498	0.41003333333333325	5.027200000000001	1.0
765.9483896233072	0.41269999999999996	5.0018666666666665	1.0
765.9483896233072	0.4045999999999999	4.8568	1.0
765.9483896233072	0.4025999999999999	4.7976	1.0
767.0751209193588	0.42833333333333334	5.216133333333333	1.0
767.0751209193588	0.4411999999999999	5.431466666666667	1.0
767.078294775882	0.44883333333333325	5.472533333333334	1.0
767.078294775882	0.4507333333333332	5.48	1.0
767.078294775882	0.45473333333333327	5.497066666666666	1.0
767.5094836989775	0.45473333333333327	5.3588	1.0
767.5094836989775	0.4423333333333333	5.448799999999999	1.0
767.5093532003814	0.43929999999999986	5.448799999999999	1.0
767.5093532003814	0.4527333333333333	5.529466666666665	1.0
767.9452836892059	0.42856666666666665	5.4192	1.0
767.9452836892059	0.4184999999999999	5.1117333333333335	1.0
767.9452836892059	0.3898666666666666	4.867333333333333	1.0
768.2074364806257	0.4300999999999999	5.1952	1.0
768.2074364806257	0.40869999999999995	5.091333333333334	1.0
768.6439676994484	0.39159999999999995	4.896	1.0
768.6439676994484	0.3925666666666666	4.750666666666667	1.0
768.6439676994484	0.3841666666666666	4.711200000000001	1.0
768.9930088888443	0.3841666666666666	5.127866666666667	1.0
768.9930088888443	0.4037666666666666	5.226933333333333	1.0
768.9939291327098	0.41413333333333324	5.226933333333333	1.0
768.9939291327098	0.4103333333333332	5.198266666666667	1.0
768.9939291327098	0.3828	4.941066666666667	1.0
769.0801428184965	0.3992666666666666	4.907466666666667	1.0
769.0801428184965	0.39656666666666657	4.97	1.0
769.4319044118836	0.39383333333333326	5.014666666666667	1.0
769.4319044118836	0.4517666666666666	5.722400000000001	1.0
769.4319044118836	0.45199999999999996	5.806666666666667	1.0
770.2183936748783	0.4160666666666666	5.395866666666666	1.0
770.2183936748783	0.4160666666666666	5.379466666666667	1.0
770.2183936748783	0.4163999999999999	5.394533333333333	1.0
770.2183936748783	0.42289999999999994	5.394533333333333	1.0
770.2183936748783	0.4391666666666666	5.564666666666666	1.0
770.9247416846756	0.41659999999999997	5.1556	1.0
770.9247416846756	0.39043333333333324	5.106133333333334	1.0
771.7132923395225	0.4045666666666666	5.176000000000001	1.0
771.7132923395225	0.3826666666666666	5.019733333333334	1.0
771.7132923395225	0.3656999999999999	4.685333333333333	1.0
771.9806158386926	0.36699999999999994	4.6404000000000005	1.0
771.9806158386926	0.4014	5.141066666666666	1.0
772.066823228469	0.41086666666666666	5.3716	1.0
772.066823228469	0.41086666666666666	5.396533333333332	1.0
772.066823228469	0.4071333333333333	5.3020000000000005	1.0
772.0664205255221	0.4089	5.3020000000000005	1.0
772.0664205255221	0.39753333333333324	5.097466666666667	1.0
772.0664205255221	0.3700333333333333	4.7924	1.0
772.0664205255221	0.38499999999999995	5.065066666666667	1.0
773.214760548892	0.41516666666666663	5.557466666666666	1.0
773.214760548892	0.4045999999999999	5.277200000000001	1.0
773.214760548892	0.3901666666666666	5.073066666666667	1.0
773.6543719751951	0.39139999999999997	5.066666666666667	1.0
773.6543719751951	0.40863333333333324	5.255199999999999	1.0
774.3262741816584	0.40863333333333324	5.853466666666666	1.0
774.3262741816584	0.4521999999999999	5.110266666666666	1.0
774.3262741816584	0.3887666666666666	5.110266666666666	1.0
774.3652130278077	0.3902999999999999	4.9581333333333335	1.0
774.3652130278077	0.39446666666666663	5.064133333333333	1.0
774.7219877823046	0.4062666666666666	5.263599999999999	1.0
774.7219877823046	0.39673333333333327	5.2532000000000005	1.0
774.7219877823046	0.39523333333333327	5.024266666666667	1.0
775.1647375052319	0.4081666666666666	5.394533333333333	1.0
775.1647375052319	0.43076666666666663	5.7030666666666665	1.0
775.1659502814164	0.43423333333333325	5.789200000000001	1.0
775.1659502814164	0.4275999999999999	5.7951999999999995	1.0
775.1659502814164	0.4275999999999999	5.690666666666667	1.0
775.2887584026347	0.4450666666666666	5.328799999999999	1.0
775.2887584026347	0.4047666666666666	5.328799999999999	1.0
775.522429570378	0.4174999999999999	5.507866666666667	1.0
775.522429570378	0.39286666666666664	5.1324000000000005	1.0
775.522429570378	0.37029999999999996	4.852799999999999	1.0
776.4092793710946	0.43329999999999996	5.677466666666667	1.0
776.4092793710946	0.4297333333333332	5.736133333333334	1.0
776.6809177915252	0.41693333333333327	5.501066666666666	1.0
776.6809177915252	0.3994666666666666	5.1626666666666665	1.0
776.6809177915252	0.38426666666666665	5.110933333333334	1.0
777.035966171295	0.38426666666666665	5.313999999999999	1.0
777.035966171295	0.4148999999999999	5.6041333333333325	1.0
777.1248201931828	0.4212666666666667	5.6041333333333325	1.0
777.1248201931828	0.41136666666666655	5.497866666666667	1.0
777.1248201931828	0.42039999999999994	5.4568	1.0
777.84300252683	0.4269	5.562133333333333	1.0
777.84300252683	0.42389999999999994	5.484666666666667	1.0
778.1996035976418	0.40676666666666655	5.364133333333332	1.0
778.1996035976418	0.41139999999999993	5.339066666666666	1.0
778.2889835151891	0.43376666666666663	5.8168	1.0
778.2889835151891	0.4447666666666666	5.839066666666666	1.0
778.2889835151891	0.44103333333333333	5.802533333333334	1.0
778.5586489014692	0.44103333333333333	5.815333333333333	1.0
778.5586489014692	0.4376999999999999	5.908933333333332	1.0
778.5585116861195	0.4489666666666667	5.908933333333332	1.0
778.5585116861195	0.44583333333333336	5.828666666666666	1.0
778.5585116861195	0.4332666666666665	5.711866666666666	1.0
778.5585116861195	0.4448666666666666	5.901199999999999	1.0
778.5585116861195	0.42906666666666654	5.494533333333333	1.0
780.0919004061981	0.41643333333333327	5.406	1.0
780.0919004061981	0.4443333333333333	5.808	1.0
780.0919004061981	0.474	6.052133333333333	1.0
780.1758549162789	0.47373333333333323	6.262	1.0
780.1758549162789	0.45199999999999996	6.02	1.0
780.9853834195173	0.45199999999999996	5.830133333333333	1.0
780.9853834195173	0.4450666666666666	5.653199999999999	1.0
780.9853834195173	0.4426666666666666	5.653199999999999	1.0
781.3492519669041	0.4449333333333332	5.609733333333333	1.0
781.3492519669041	0.4519333333333333	5.813066666666667	1.0
781.4371711419577	0.4739333333333334	5.983066666666666	1.0
781.4371711419577	0.44593333333333324	5.8056	1.0
781.4371711419577	0.44939999999999986	5.743333333333333	1.0
781.398847598098	0.43809999999999993	5.768133333333333	1.0
781.398847598098	0.43589999999999995	5.6609333333333325	1.0
781.7137685307707	0.44413333333333327	5.630799999999999	1.0
781.7137685307707	0.4454666666666666	5.5192000000000005	1.0
781.7137685307707	0.4454666666666666	6.083333333333334	1.0
782.8873773890323	0.4872333333333332	6.190933333333334	1.0
782.8873773890323	0.48879999999999996	6.190933333333334	1.0
783.3408305787956	0.4908666666666666	6.042666666666666	1.0
783.3408305787956	0.4930666666666666	6.169066666666666	1.0
783.3408159457271	0.5214333333333333	6.504666666666666	1.0
783.3408159457271	0.5260333333333332	6.486933333333333	1.0
783.3408159457271	0.4679333333333333	5.768	1.0
783.3408159457271	0.4852999999999999	5.976000000000001	1.0
783.3408159457271	0.5005333333333333	6.034933333333333	1.0
784.5216947506768	0.46836666666666665	5.670933333333333	1.0
784.5216947506768	0.5155	6.2756	1.0
784.5216947506768	0.5155	6.5176	1.0
784.5255511783596	0.5313333333333332	6.5176	1.0
784.5255511783596	0.5496	6.558800000000001	1.0
784.6107591366136	0.5002666666666666	6.090533333333334	1.0
784.6107591366136	0.5011	6.064666666666667	1.0
784.6107591366136	0.5101666666666667	6.0656	1.0
784.8853294905502	0.49203333333333327	5.911066666666666	1.0
784.8853294905502	0.46819999999999995	5.726933333333334	1.0
784.9769321807738	0.46629999999999994	5.72	1.0
784.9769321807738	0.4798333333333333	5.786666666666667	1.0
784.9769321807738	0.5314333333333332	6.2096	1.0
786.0719202358026	0.5314333333333332	6.2124	1.0
786.0719202358026	0.5301666666666666	6.127199999999999	1.0
786.4454593291351	0.5216666666666666	6.127199999999999	1.0
786.4454593291351	0.4917333333333333	5.544399999999999	1.0
786.4454593291351	0.5201333333333332	5.918133333333332	1.0
787.1723216555142	0.5372333333333333	6.155733333333333	1.0
787.1723216555142	0.5573333333333333	6.2329333333333325	1.0
787.1723216555142	0.5253333333333332	5.7809333333333335	1.0
787.1723216555142	0.5551333333333333	5.928133333333333	1.0
787.1723216555142	0.5708	6.126133333333334	1.0
787.7206366533634	0.6038333333333332	6.485333333333333	1.0
787.7206366533634	0.6038333333333332	6.586666666666668	1.0
788.0031146701904	0.6057666666666666	6.579200000000001	1.0
788.0031146701904	0.5977666666666667	6.579200000000001	1.0
788.0031146701904	0.5929666666666665	6.2772	1.0
788.0922281425113	0.5767999999999999	6.1524	1.0
788.0922281425113	0.5605333333333332	5.862266666666666	1.0
788.092611856048	0.5411333333333332	5.638533333333332	1.0
788.092611856048	0.5365666666666665	5.616666666666666	1.0
788.1839597973436	0.5373666666666665	5.637999999999999	1.0
788.1839597973436	0.5568	5.762266666666666	1.0
788.1839597973436	0.6216666666666666	5.938399999999999	1.0
789.2894712741999	0.6222333333333333	5.929999999999999	1.0
789.2894712741999	0.6222333333333333	6.0248	1.0
789.6570171826837	0.6515	6.718266666666667	1.0
789.6570171826837	0.7216666666666666	6.718266666666667	1.0
789.6570171826837	0.7592666666666665	6.822133333333333	1.0
788.0926903683952	0.5831999999999999	6.5556	1.0
787.7225787647782	0.6051333333333332	6.348533333333333	1.0
787.7225787647782	0.5932333333333333	6.348533333333333	1.0
787.3562964959157	0.5507333333333332	5.867733333333333	1.0
787.3562964959157	0.5268999999999999	5.6819999999999995	1.0
786.4842456199738	0.5252	5.705333333333333	1.0
786.4842456199738	0.502	5.554799999999999	1.0
786.4842456199738	0.49369999999999986	5.4842666666666675	1.0
786.4433963690308	0.4923666666666666	5.478533333333335	1.0
786.4433963690308	0.49313333333333326	5.486400000000001	1.0
786.0734430253506	0.48403333333333326	5.638133333333332	1.0
786.0734430253506	0.48403333333333326	6.2308	1.0
786.0734430253506	0.5335333333333332	6.423466666666667	1.0
786.0753754931981	0.5558333333333333	6.423466666666667	1.0
786.0753754931981	0.5541333333333333	6.437866666666667	1.0
784.890124118267	0.4759333333333333	5.655466666666666	1.0
784.890124118267	0.4841666666666666	5.887066666666666	1.0
784.890124118267	0.49456666666666665	5.946666666666666	1.0
784.8014164344988	0.4999666666666666	6.0404	1.0
784.8014164344988	0.5151666666666667	6.204933333333333	1.0
784.6098772927149	0.5123666666666666	6.257199999999999	1.0
784.6098772927149	0.5154333333333333	6.180266666666666	1.0
784.6098772927149	0.5023666666666666	6.088933333333332	1.0
784.4372828399689	0.5023666666666666	6.124666666666667	1.0
784.4372828399689	0.4995333333333333	5.883733333333333	1.0
784.0696341468708	0.49549999999999994	5.883733333333333	1.0
784.0696341468708	0.49353333333333327	5.879199999999999	1.0
784.0696341468708	0.5119	6.2376	1.0
783.7938827426432	0.4696999999999999	5.683866666666666	1.0
783.7938827426432	0.4870666666666666	6.034266666666666	1.0
783.3385821253571	0.5083666666666666	6.466933333333333	1.0
783.3385821253571	0.5080333333333332	6.354000000000001	1.0
782.9751472391558	0.4828333333333332	5.955066666666666	1.0
782.9751472391558	0.49499999999999983	6.311466666666668	1.0
782.9751472391558	0.47563333333333324	6.121333333333333	1.0
781.7122389451484	0.47563333333333324	5.696	1.0
781.7122389451484	0.4446	5.696	1.0
781.7089648233914	0.4695333333333333	5.946533333333334	1.0
781.7089648233914	0.47	6.0416	1.0
781.7089648233914	0.47563333333333324	5.999466666666667	1.0
781.4380200221901	0.4625	5.989066666666666	1.0
781.4380200221901	0.46916666666666645	6.118	1.0
781.4361893056346	0.47643333333333326	6.040533333333333	1.0
781.4361893056346	0.45883333333333326	5.7964	1.0
781.4361893056346	0.42646666666666666	5.5652	1.0
781.3457874102594	0.44389999999999985	5.4442666666666675	1.0
781.3457874102594	0.44389999999999985	5.8824	1.0
780.748788220051	0.4542666666666666	5.9673333333333325	1.0
780.748788220051	0.4675999999999999	5.9673333333333325	1.0
780.748788220051	0.4386999999999999	5.577333333333333	1.0
780.1766880692048	0.44383333333333325	5.811066666666667	1.0
780.1766880692048	0.4546	5.816400000000001	1.0
779.8127258672431	0.44929999999999987	5.811466666666667	1.0
779.8127258672431	0.42906666666666654	5.632533333333333	1.0
779.8127258672431	0.4564	5.913733333333333	1.0
779.3960810503756	0.4389333333333333	5.856	1.0
779.3960810503756	0.4440333333333333	5.795733333333334	1.0
778.559102903287	0.43463333333333326	5.763733333333333	1.0
778.559102903287	0.43463333333333326	6.1735999999999995	1.0
778.559102903287	0.47089999999999993	6.176399999999999	1.0
778.3744635965134	0.4717999999999999	6.176399999999999	1.0
778.3744635965134	0.4451666666666666	5.8591999999999995	1.0
778.2874216023961	0.4598	6.040800000000001	1.0
778.2874216023961	0.43806666666666655	5.780533333333333	1.0
778.2874216023961	0.41123333333333323	5.458133333333333	1.0
777.9294936978675	0.41723333333333323	5.586399999999999	1.0
777.9294936978675	0.43666666666666665	5.682933333333333	1.0
777.4815020717404	0.41056666666666664	5.386133333333333	1.0
777.4815020717404	0.4169	5.3396	1.0
777.0357629755391	0.43106666666666654	5.678533333333333	1.0
777.0357629755391	0.43106666666666654	5.4116	1.0
777.0357629755391	0.41759999999999997	5.320266666666666	1.0
776.8033940427282	0.40556666666666663	5.320266666666666	1.0
776.8033940427282	0.40653333333333325	5.273066666666666	1.0
776.8033940427282	0.42336666666666656	5.476266666666667	1.0
776.8033940427282	0.3935333333333333	5.178533333333333	1.0
776.8033940427282	0.3898666666666666	5.150666666666666	1.0
775.520017404903	0.40859999999999996	5.5024	1.0
775.520017404903	0.4569	5.947866666666666	1.0
775.1635701309457	0.43363333333333326	5.7208000000000006	1.0
775.1635701309457	0.4123999999999999	5.5224	1.0
775.1635701309457	0.4126666666666666	5.400533333333333	1.0
775.1635849486669	0.4126666666666666	5.482	1.0
775.1635849486669	0.4218333333333333	5.185466666666667	1.0
774.808276717972	0.39736666666666665	5.185466666666667	1.0
774.808276717972	0.4026666666666666	5.1368	1.0
774.808276717972	0.42623333333333324	5.599866666666666	1.0
774.3659404569671	0.4052333333333333	5.260133333333333	1.0
774.3659404569671	0.3978999999999999	5.145466666666667	1.0
774.0112426583717	0.3998999999999999	5.196666666666666	1.0
774.0112426583717	0.41816666666666663	5.365333333333333	1.0
774.0112426583717	0.38696666666666657	5.0764000000000005	1.0
773.657624338164	0.3975666666666666	5.231599999999999	1.0
773.657624338164	0.38899999999999996	4.981199999999999	1.0
772.4203436003801	0.38899999999999996	4.884133333333333	1.0
772.4203436003801	0.3719999999999999	4.884133333333333	1.0
772.4203436003801	0.3986666666666666	5.241466666666667	1.0
772.1544580055264	0.4389333333333333	5.567733333333332	1.0
772.1544580055264	0.4125999999999999	5.415733333333333	1.0
772.0675762666518	0.38309999999999994	4.912533333333332	1.0
772.0675762666518	0.37436666666666657	4.76	1.0
771.9807445247767	0.3698666666666666	4.7152	1.0
771.9807445247767	0.3897666666666666	4.965466666666667	1.0
771.9807445247767	0.3978999999999999	5.224933333333333	1.0
771.3630052849003	0.3947666666666666	5.0064	1.0
771.3630052849003	0.3759666666666666	4.81	1.0
770.9214090432667	0.3759666666666666	4.939333333333333	1.0
770.9214090432667	0.3873333333333333	4.939333333333333	1.0
770.9214090432667	0.39863333333333323	5.118	1.0
770.5697011835022	0.4146333333333333	5.233733333333333	1.0
770.5697011835022	0.39643333333333325	5.132000000000001	1.0
770.21771967074	0.38553333333333323	4.940133333333334	1.0
770.21771967074	0.37629999999999997	4.805466666666666	1.0
770.21771967074	0.38656666666666656	4.847733333333332	1.0
769.3455765478758	0.39503333333333324	4.914	1.0
769.3455765478758	0.4341666666666666	5.484933333333333	1.0
769.0810582431199	0.44089999999999996	5.701866666666667	1.0
769.0810582431199	0.44089999999999996	5.704133333333334	1.0
769.0810582431199	0.45659999999999995	5.704133333333334	1.0
768.9956647050574	0.4253333333333333	5.469066666666666	1.0
768.9956647050574	0.3827666666666666	4.729066666666667	1.0
768.6462426078311	0.38033333333333325	4.7783999999999995	1.0
768.6462426078311	0.42579999999999996	5.221866666666666	1.0
768.6462426078311	0.4260666666666666	5.223599999999999	1.0
768.210011512913	0.37859999999999994	4.6917333333333335	1.0
768.210011512913	0.3950666666666666	4.855599999999999	1.0
768.2092751349962	0.39319999999999994	4.8652	1.0
768.2092751349962	0.3933666666666666	4.778266666666667	1.0
768.2092751349962	0.3933666666666666	4.5564	1.0
767.5122532700942	0.37073333333333325	4.907733333333333	1.0
767.5122532700942	0.39169999999999994	4.907733333333333	1.0
767.0758910378253	0.3984333333333333	4.9204	1.0
767.0758910378253	0.3877999999999999	4.7965333333333335	1.0
767.0758910378253	0.3943	4.682533333333334	1.0
767.0759095513786	0.3786999999999999	4.670133333333333	1.0
767.0759095513786	0.38413333333333327	4.662666666666667	1.0
766.0305652556394	0.39333333333333326	4.6816	1.0
766.0305652556394	0.40869999999999995	5.126666666666667	1.0
765.9470375873983	0.42669999999999997	5.147200000000001	1.0
765.9470375873983	0.39616666666666667	4.7436	1.0
765.9470375873983	0.38419999999999993	4.558133333333333	1.0
765.9475351498445	0.38419999999999993	4.3684	1.0
765.9475351498445	0.37166666666666665	4.3684	1.0
765.5156074191298	0.3630999999999999	4.288799999999999	1.0
765.5156074191298	0.37009999999999993	4.3617333333333335	1.0
765.5156074191298	0.41193333333333326	5.082933333333334	1.0
765.3390054902187	0.43663333333333315	5.163733333333333	1.0
765.3390054902187	0.4321999999999999	5.1604	1.0
764.9080346188083	0.3970333333333333	4.883733333333334	1.0
764.9080346188083	0.4142666666666666	4.900399999999999	1.0
764.9080346188083	0.4098999999999999	4.992533333333332	1.0
764.9092721306879	0.4077666666666666	4.92	1.0
764.9092721306879	0.4077666666666666	4.899733333333333	1.0
764.3920557031739	0.40803333333333325	4.759066666666667	1.0
764.3920557031739	0.40106666666666657	4.759066666666667	1.0
764.3920557031739	0.39569999999999994	4.76	1.0
764.0447314446963	0.3975333333333333	4.678800000000001	1.0
764.0447314446963	0.3813	4.415466666666668	1.0
764.0447314446963	0.38386666666666663	4.440133333333334	1.0
764.0447314446963	0.3793666666666666	4.441066666666667	1.0
764.0447314446963	0.3800333333333333	4.408133333333335	1.0
763.1875621261185	0.37763333333333327	4.381733333333334	1.0
763.1875621261185	0.3645999999999999	4.3176	1.0
763.1875621261185	0.35929999999999995	4.069866666666667	1.0
763.1875621261185	0.35929999999999995	3.9568	1.0
763.1875621261185	0.35406666666666664	3.8966666666666665	1.0
762.8413094507472	0.33709999999999996	3.8966666666666665	1.0
762.8413094507472	0.3732999999999999	4.259066666666667	1.0
762.4130498732028	0.35406666666666664	4.0772	1.0
762.4130498732028	0.3706999999999999	4.2132000000000005	1.0
762.4130498732028	0.3651666666666666	4.2068	1.0
762.1498061260626	0.35723333333333324	3.9997333333333334	1.0
762.1498061260626	0.36129999999999995	4.009200000000001	1.0
762.1493415954685	0.3696666666666666	4.220533333333334	1.0
762.1493415954685	0.3848333333333333	4.350933333333334	1.0
762.0692005748774	0.3793999999999999	4.4152000000000005	1.0
762.0692005748774	0.3793999999999999	4.412800000000002	1.0
762.0692005748774	0.39619999999999994	4.412800000000002	1.0
758.7488881839723	0.3906666666666666	4.376666666666667	1.0
758.7488881839723	0.39303333333333323	4.299066666666666	1.0
758.3148681757394	0.39353333333333324	4.336133333333334	1.0
758.3148681757394	0.4022666666666666	4.340533333333334	1.0
758.3148681757394	0.3976666666666666	4.3238666666666665	1.0
757.97408496833	0.38133333333333325	4.109333333333334	1.0
757.97408496833	0.37196666666666656	4.044666666666667	1.0
757.292963126263	0.37283333333333324	4.015733333333333	1.0
757.292963126263	0.3627666666666666	3.8302666666666663	1.0
757.292963126263	0.3627666666666666	3.8192	1.0
757.2100262015822	0.3550666666666666	4.204133333333333	1.0
757.2100262015822	0.3874999999999999	4.204133333333333	1.0
756.9537268653484	0.39809999999999995	4.410666666666668	1.0
756.9537268653484	0.42169999999999996	4.5504	1.0
756.9537268653484	0.4447666666666666	4.759200000000001	1.0
756.9506116705842	0.43363333333333326	4.714666666666667	1.0
756.9506116705842	0.4171333333333333	4.491466666666667	1.0
756.7904182816982	0.3956333333333333	4.217733333333334	1.0
756.7904182816982	0.4092666666666666	4.381066666666667	1.0
756.7904182816982	0.4179666666666666	4.530533333333333	1.0
756.5311901184284	0.42626666666666657	4.513599999999999	1.0
756.5311901184284	0.42626666666666657	4.096266666666667	1.0
756.1122453275468	0.39533333333333326	3.993866666666667	1.0
756.1122453275468	0.39069999999999994	3.993866666666667	1.0
756.1122453275468	0.3951333333333333	4.200799999999999	1.0
755.8512528691246	0.39903333333333324	4.220533333333333	1.0
755.8512528691246	0.4006333333333333	4.2128	1.0
754.8988613148875	0.41609999999999997	4.273733333333333	1.0
754.8988613148875	0.4114999999999999	4.2756	1.0
754.8988613148875	0.4017333333333333	4.198533333333333	1.0
754.6751267804109	0.39326666666666665	4.145866666666667	1.0
754.6751267804109	0.3974333333333333	4.051066666666667	1.0
754.3362914662296	0.3974333333333333	3.88	1.0
754.3362914662296	0.38873333333333326	3.9481333333333337	1.0
754.3362914662296	0.3879333333333333	3.9481333333333337	1.0
754.0009808813962	0.44053333333333333	4.452266666666667	1.0
754.0009808813962	0.4539666666666667	4.654933333333333	1.0
753.581132603499	0.43293333333333334	4.468133333333333	1.0
753.581132603499	0.4525666666666666	4.590800000000001	1.0
753.581132603499	0.45566666666666655	4.589333333333333	1.0
753.2474538163214	0.43066666666666664	4.3340000000000005	1.0
753.2474538163214	0.4215666666666666	4.101066666666667	1.0
753.2474538163214	0.3911333333333333	3.978266666666667	1.0
753.2474538163214	0.43153333333333327	4.347866666666667	1.0
753.2474538163214	0.43153333333333327	4.282933333333333	1.0
752.749002821914	0.4260999999999999	4.282933333333333	1.0
752.749002821914	0.42103333333333326	4.186533333333333	1.0
752.1581652295519	0.4210333333333333	4.1824	1.0
752.1581652295519	0.43533333333333324	4.333066666666667	1.0
752.1581652295519	0.4531333333333332	4.532933333333333	1.0
752.1555540229825	0.4296666666666666	4.279466666666667	1.0
752.1555540229825	0.44043333333333334	4.209066666666667	1.0
751.7039378112464	0.44576666666666653	4.497199999999999	1.0
751.7039378112464	0.44933333333333325	4.447066666666667	1.0
751.7039378112464	0.4271666666666666	4.090400000000001	1.0
751.4069051611407	0.4271666666666666	4.178533333333333	1.0
751.4069051611407	0.4227666666666666	4.492400000000001	1.0
751.072365268508	0.4521666666666666	4.492400000000001	1.0
751.072365268508	0.4550666666666666	4.427733333333335	1.0
751.072365268508	0.42883333333333323	4.254133333333333	1.0
751.072365268508	0.45196666666666657	4.358400000000001	1.0
751.072365268508	0.45513333333333333	4.337066666666667	1.0
750.3215124387755	0.4292333333333333	3.9793333333333334	1.0
750.3215124387755	0.40939999999999993	3.8787999999999996	1.0
750.2408047509783	0.4186666666666666	3.9705333333333335	1.0
750.2408047509783	0.4416666666666665	4.225066666666667	1.0
750.2408047509783	0.4529999999999999	4.257066666666667	1.0
