wavelength(nm)	flourescence PMT(V)	ti_saph Power (V)	Gain (V)
800.3376139211408	0.18463333333333326	1.0808	1.1
800.3376139211408	0.18463333333333326	1.132266666666667	1.1
800.4323151929871	0.19233333333333325	1.1486666666666667	1.1
800.8082653788445	0.18326666666666658	1.1486666666666667	1.1
800.8237924010499	0.18409999999999993	1.153066666666667	1.1
801.1007306114301	0.1810666666666666	1.0852	1.1
801.1007306114301	0.1823666666666666	1.0798666666666668	1.1
801.0929470760549	0.1739666666666666	1.08	1.1
801.1893827496298	0.18273333333333328	1.0793333333333335	1.1
801.1946224740867	0.18453333333333327	1.0801333333333334	1.1
801.1946224740867	0.18843333333333326	1.1264000000000003	1.1
801.1886592305319	0.19039999999999993	1.1602666666666668	1.1
801.2851358963553	0.1835666666666666	1.173066666666667	1.1
801.3923646573693	0.1835666666666666	1.1494666666666669	1.1
801.3923646573693	0.1822666666666666	1.0957333333333334	1.1
802.3360298123403	0.17459999999999995	1.0957333333333334	1.1
802.7226545998956	0.18503333333333324	1.1356000000000002	1.1
802.7237269437661	0.19093333333333326	1.1592000000000002	1.1
802.7192256408108	0.1953666666666666	1.1960000000000002	1.1
802.7192256408108	0.18793333333333326	1.1764000000000003	1.1
802.8120093140315	0.18893333333333326	1.1601333333333335	1.1
803.4811872809106	0.18079999999999993	1.1596	1.1
804.0560554888036	0.20086666666666658	1.2112	1.1
804.0560554888036	0.1871333333333333	1.2350666666666668	1.1
804.0588536212824	0.19143333333333326	1.1740000000000002	1.1
804.2509869755258	0.19143333333333326	1.1604	1.1
804.347270630494	0.18199999999999997	1.16	1.1
804.347270630494	0.18329999999999994	1.16	1.1
804.347270630494	0.18239999999999995	1.1249333333333333	1.1
804.4373382405753	0.18513333333333326	1.0779999999999998	1.1
804.6283513323789	0.18569999999999992	1.0766666666666667	1.1
804.6297281600496	0.18673333333333328	1.1528	1.1
804.6297281600496	0.17523333333333327	1.1564000000000003	1.1
804.7213178556481	0.1847666666666666	1.1585333333333336	1.1
804.8259984236385	0.19046666666666662	1.2110666666666667	1.1
805.7774918447794	0.18503333333333324	1.2282666666666668	1.1
806.0719183822118	0.18286666666666662	1.1634666666666666	1.1
806.0719183822118	0.18286666666666662	1.2106666666666668	1.1
805.9824427214263	0.1853666666666666	1.2106666666666668	1.1
806.0766127926289	0.1873666666666666	1.2620000000000002	1.1
806.8044037286123	0.19103333333333325	1.2622666666666669	1.1
806.8044037286123	0.19829999999999995	1.181066666666667	1.1
806.9385995283484	0.20083333333333322	1.1602666666666668	1.1
807.4203557136982	0.19796666666666657	1.1882666666666668	1.1
807.4203557136982	0.18593333333333326	1.16	1.1
807.7153705046985	0.1814666666666666	1.16	1.1
807.7153705046985	0.18766666666666662	1.1562666666666668	1.1
807.7154536346235	0.1866666666666666	1.1540000000000001	1.1
807.8053530330833	0.1866666666666666	1.16	1.1
807.9014575418541	0.18169999999999992	1.1665333333333334	1.1
807.9014575418541	0.18826666666666658	1.1665333333333334	1.1
807.9014575418541	0.1972666666666666	1.2450666666666668	1.1
807.9015160414064	0.20103333333333326	1.2442666666666669	1.1
808.011036581139	0.18803333333333325	1.240266666666667	1.1
808.1986217581783	0.19056666666666658	1.2322666666666668	1.1
808.1986217581783	0.19649999999999992	1.2408000000000001	1.1
808.1935392041433	0.19606666666666658	1.1601333333333337	1.1
808.1953437838183	0.18946666666666662	1.1588	1.1
809.064699690444	0.1961666666666666	1.1581333333333335	1.1
809.064699690444	0.19453333333333325	1.2541333333333335	1.1
809.3587212621248	0.19453333333333325	1.2266666666666668	1.1
809.4562502988161	0.18963333333333326	1.2382666666666666	1.1
809.4544545597781	0.20169999999999993	1.2382666666666666	1.1
809.4563026209328	0.1979666666666666	1.2296000000000002	1.1
809.4563026209328	0.19583333333333325	1.188666666666667	1.1
810.2345580149839	0.19449999999999992	1.1645333333333336	1.1
810.6242033101285	0.1909333333333333	1.1604	1.1
810.7244157632881	0.19439999999999993	1.311866666666667	1.1
810.7244157632881	0.1760666666666666	1.254666666666667	1.1
811.1041019926203	0.1875666666666666	1.287866666666667	1.1
811.202438652579	0.18873333333333328	1.3200000000000003	1.1
811.1030832738063	0.18873333333333328	1.3204000000000005	1.1
811.1030832738063	0.19303333333333325	1.3201333333333336	1.1
811.4099544276041	0.2007666666666666	1.3201333333333336	1.1
811.4109858737479	0.2009666666666666	1.3201333333333336	1.1
811.5021348941716	0.1902666666666666	1.3060000000000003	1.1
811.503115881816	0.18773333333333325	1.2052000000000003	1.1
811.503115881816	0.20006666666666661	1.2224000000000002	1.1
811.4995589775865	0.18853333333333328	1.1632	1.1
811.5016819005607	0.18973333333333325	1.16	1.1
811.7963932908086	0.1786666666666666	1.1569333333333334	1.1
811.7963932908086	0.18956666666666658	1.2406666666666668	1.1
812.6779389274725	0.20253333333333326	1.3697333333333335	1.1
813.0728540533025	0.20253333333333326	1.2809333333333337	1.1
813.0728821135909	0.1855666666666666	1.2104	1.1
813.1619180075888	0.19079999999999994	1.2104	1.1
813.1619180075888	0.19336666666666658	1.2590666666666668	1.1
814.0472561708245	0.2036666666666666	1.2389333333333334	1.1
814.0472561708245	0.19623333333333326	1.287866666666667	1.1
814.534469821693	0.18783333333333327	1.2406666666666668	1.1
814.534469821693	0.18933333333333327	1.3188000000000004	1.1
814.7388306637417	0.18959999999999994	1.3836000000000002	1.1
814.7399555074795	0.1896666666666666	1.3933333333333333	1.1
814.7387631892981	0.19793333333333327	1.3998666666666668	1.1
814.7386198354657	0.20076666666666662	1.4001333333333335	1.1
814.7386198354657	0.20076666666666662	1.3998666666666668	1.1
814.7426453005994	0.19929999999999992	1.2824	1.1
815.1302852916416	0.17659999999999992	1.16	1.1
815.3231810002657	0.1726666666666666	1.16	1.1
815.3231810002657	0.18623333333333325	1.204666666666667	1.1
815.3251036148673	0.19119999999999995	1.314266666666667	1.1
816.2082162107465	0.19349999999999995	1.3161333333333336	1.1
816.2090542297242	0.18403333333333327	1.16	1.1
816.2093534344393	0.1779666666666666	1.16	1.1
816.2093534344393	0.1785666666666666	1.16	1.1
816.8122264406572	0.1832666666666666	1.2812000000000003	1.1
817.3050753105731	0.18169999999999994	1.3197333333333336	1.1
817.4938789513154	0.18619999999999992	1.251466666666667	1.1
817.4938789513154	0.18619999999999992	1.2390666666666668	1.1
817.4895782892524	0.17556666666666662	1.2390666666666668	1.1
817.4895782892524	0.1774666666666666	1.1620000000000001	1.1
817.4895782892524	0.17623333333333327	1.16	1.1
818.2894807896794	0.17943333333333328	1.2888000000000004	1.1
818.2894807896794	0.17693333333333328	1.2516000000000003	1.1
818.2908806733734	0.17183333333333328	1.1733333333333333	1.1
818.2908806733734	0.17969999999999994	1.1633333333333333	1.1
818.5922494542518	0.17033333333333325	1.1668	1.1
818.5922494542518	0.17493333333333327	1.16	1.1
818.5961947354565	0.17543333333333327	1.16	1.1
818.5905747301074	0.17543333333333327	1.16	1.1
818.6846401842843	0.1745666666666666	1.16	1.1
818.6846401842843	0.17313333333333328	1.16	1.1
819.3907281922685	0.18503333333333324	1.16	1.1
819.7910928122556	0.1883333333333333	1.3304000000000002	1.1
819.7882620783395	0.18193333333333328	1.3624000000000003	1.1
820.4919850382801	0.18336666666666662	1.3145333333333336	1.1
820.4919850382801	0.17336666666666659	1.354266666666667	1.1
820.8238094849521	0.18109999999999993	1.3213333333333335	1.1
821.0871952670524	0.17653333333333326	1.1985333333333335	1.1
820.9442101756522	0.17973333333333327	1.3248000000000002	1.1
820.9442101756522	0.17673333333333327	1.3810666666666669	1.1
821.3897221613164	0.17673333333333327	1.3941333333333334	1.1
821.3897221613164	0.17839999999999995	1.3936000000000002	1.1
821.7929599722597	0.1901333333333333	1.3936000000000002	1.1
821.8884520098756	0.1745666666666666	1.3901333333333334	1.1
821.8884520098756	0.17309999999999992	1.393066666666667	1.1
821.8884520098756	0.1737666666666666	1.4010666666666667	1.1
821.888558893567	0.18343333333333328	1.4005333333333332	1.1
822.1946935960569	0.18353333333333327	1.327866666666667	1.1
822.1946935960569	0.18069999999999994	1.3201333333333336	1.1
822.1925903287968	0.17713333333333325	1.317066666666667	1.1
822.191905569736	0.17163333333333328	1.237066666666667	1.1
822.191905569736	0.1734666666666666	1.314266666666667	1.1
823.4906457426792	0.1734666666666666	1.4261333333333333	1.1
823.4906457426792	0.18603333333333327	1.4771999999999998	1.1
823.4960524401063	0.1787666666666666	1.4771999999999998	1.1
824.0014069929236	0.1831333333333333	1.4792	1.1
824.0011212247899	0.16919999999999993	1.4025333333333334	1.1
824.0011212247899	0.17533333333333326	1.4684	1.1
824.1011963081503	0.1798666666666666	1.4229333333333334	1.1
824.0005078848613	0.1744666666666666	1.363866666666667	1.1
824.4021958408074	0.16299999999999995	1.316666666666667	1.1
824.4021958408074	0.16309999999999994	1.3044000000000004	1.1
824.4021958408074	0.16489999999999994	1.3965333333333334	1.1
824.8122613661639	0.16749999999999995	1.3949333333333334	1.1
825.2154859494349	0.16749999999999995	1.3045333333333335	1.1
825.210778662469	0.16916666666666663	1.2369333333333337	1.1
825.210778662469	0.16509999999999994	1.2369333333333337	1.1
825.4013151474512	0.15653333333333327	1.3073333333333337	1.1
825.6172664422378	0.16806666666666661	1.3982666666666668	1.1
825.715946791296	0.16459999999999994	1.4137333333333333	1.1
825.7153349474632	0.17113333333333328	1.3201333333333336	1.1
825.7153349474632	0.16219999999999993	1.3201333333333336	1.1
825.7183955205239	0.16649999999999993	1.3177333333333334	1.1
825.7183955205239	0.16679999999999992	1.4162666666666666	1.1
825.7183955205239	0.16476666666666662	1.4330666666666667	1.1
825.7183955205239	0.15493333333333328	1.2822666666666669	1.1
827.0334414667643	0.15493333333333328	1.3480000000000003	1.1
827.342211763996	0.1559666666666666	1.3632000000000004	1.1
827.3377566861843	0.1651666666666666	1.3632000000000004	1.1
827.9419322705115	0.16773333333333326	1.3202666666666667	1.1
827.9419322705115	0.1562666666666666	1.3201333333333336	1.1
828.0456106112994	0.1531333333333333	1.3229333333333337	1.1
828.0456106112994	0.1561666666666666	1.4794666666666665	1.1
828.6642771147074	0.16243333333333326	1.48	1.1
828.6642771147074	0.16583333333333325	1.3845333333333334	1.1
828.7590348744964	0.15286666666666662	1.3197333333333336	1.1
828.7604618436181	0.15439999999999995	1.3202666666666667	1.1
828.7604618436181	0.1556333333333333	1.4174666666666667	1.1
829.378685277428	0.1556333333333333	1.4178666666666666	1.1
829.378685277428	0.15443333333333328	1.3949333333333334	1.1
829.3790063437864	0.16043333333333326	1.3949333333333334	1.1
829.3777034996629	0.1610666666666666	1.4154666666666667	1.1
829.3788801455247	0.15819999999999992	1.4402666666666666	1.1
829.3788801455247	0.16403333333333325	1.3725333333333334	1.1
829.9819328222915	0.16583333333333328	1.4073333333333335	1.1
830.0828067704543	0.1588666666666666	1.4124	1.1
830.4974765959385	0.15489999999999995	1.3745333333333336	1.1
830.4021553883242	0.15779999999999994	1.4746666666666666	1.1
830.4021553883242	0.16823333333333326	1.48	1.1
831.2142583449296	0.1628666666666666	1.3301333333333336	1.1
831.2126653332242	0.1628666666666666	1.3237333333333337	1.1
831.2147332785636	0.16426666666666662	1.3977333333333335	1.1
831.2147332785636	0.16059999999999994	1.3977333333333335	1.1
831.7309209313444	0.1658666666666666	1.4647999999999999	1.1
831.7335485240801	0.16326666666666662	1.3496000000000004	1.1
831.7335485240801	0.16839999999999994	1.312266666666667	1.1
832.1395591653747	0.15939999999999993	1.3518666666666668	1.1
832.1395591653747	0.1640666666666666	1.4013333333333333	1.1
832.546293712901	0.18499999999999994	1.3837333333333335	1.1
832.6485724674442	0.16779999999999992	1.3472000000000002	1.1
833.0051544054221	0.17049999999999993	1.3848000000000003	1.1
833.0051544054221	0.17699999999999994	1.3946666666666667	1.1
832.9670981930489	0.17699999999999994	1.393066666666667	1.1
833.0644504837959	0.1820333333333333	1.3794666666666668	1.1
833.3728672825113	0.17153333333333326	1.3794666666666668	1.1
833.3764173346269	0.18806666666666663	1.314266666666667	1.1
833.3764173346269	0.19003333333333325	1.3221333333333336	1.1
833.4790834995126	0.1892666666666666	1.4085333333333334	1.1
833.8923234129709	0.19589999999999994	1.3137333333333334	1.1
833.9976610248119	0.20329999999999993	1.1524	1.1
833.9976610248119	0.2117666666666666	1.142266666666667	1.1
834.299449027845	0.22743333333333327	1.0562666666666667	1.1
834.4047408952532	0.22129999999999994	0.8987999999999999	1.1
834.7158267339175	0.17836666666666662	0.33386666666666687	1.1
834.7158267339175	0.17836666666666662	0.2250666666666669	1.1
834.8185963431184	0.1697333333333333	0.2250666666666669	1.1
835.2398027756116	0.15769999999999995	0.19600000000000017	1.1
835.4417688007734	0.12573333333333328	0.01933333333333335	1.1
835.6508278296798	0.11266666666666661	-0.023466666666666688	1.1
835.6508278296798	0.1163333333333333	-0.030666666666666693	1.1
836.060547772615	0.10659999999999996	-0.03520000000000003	1.1
836.0614770967428	0.10446666666666662	-0.0338666666666667	1.1
836.3180723909813	0.11176666666666663	-0.03520000000000003	1.1
836.3180723909813	0.11056666666666662	-0.035466666666666695	1.1
836.5833181904537	0.11179999999999995	-0.03653333333333337	1.1
836.5828087042777	0.11179999999999995	-0.03240000000000003	1.1
837.0025600203927	0.10099999999999994	-0.03453333333333337	1.1
837.0927067694209	0.10819999999999994	-0.03453333333333337	1.1
837.0927067694209	0.10879999999999995	-0.033066666666666696	1.1
837.1055005194554	0.10216666666666661	-0.03413333333333336	1.1
837.5260629293545	0.10729999999999995	-0.03413333333333336	1.1
837.5163929508736	0.11486666666666664	-0.035466666666666695	1.1
837.5163929508736	0.10143333333333328	-0.0346666666666667	1.1
837.7316908152126	0.10283333333333329	-0.0334666666666667	1.1
838.1486965226037	0.11296666666666662	-0.034266666666666695	1.1
838.2464625687397	0.11029999999999994	-0.034266666666666695	1.1
838.245994170165	0.11059999999999995	-0.03400000000000003	1.1
838.245994170165	0.11059999999999995	-0.03413333333333336	1.1
838.8742866369346	0.10869999999999998	-0.03440000000000003	1.1
838.9813650476337	0.11169999999999997	-0.03440000000000003	1.1
838.981290905602	0.10866666666666662	-0.03533333333333336	1.1
838.981290905602	0.10926666666666662	-0.03453333333333337	1.1
839.4995018166753	0.10939999999999996	-0.03613333333333337	1.1
839.5026879094662	0.10096666666666662	-0.0334666666666667	1.1
839.6058909340996	0.10039999999999996	-0.03360000000000003	1.1
840.0250288316312	0.10926666666666662	-0.03573333333333337	1.1
840.0250288316312	0.10879999999999995	-0.034933333333333365	1.1
840.4381709588777	0.10359999999999994	-0.0334666666666667	1.1
840.8633796020077	0.1120666666666666	-0.03600000000000003	1.1
840.8635308619387	0.1120666666666666	-0.034266666666666695	1.1
840.8635308619387	0.10529999999999995	-0.034266666666666695	1.1
840.8678200117994	0.11526666666666661	-0.034266666666666695	1.1
840.9751695242816	0.10886666666666661	-0.0334666666666667	1.1
840.9751695242816	0.10579999999999996	-0.03586666666666669	1.1
840.9751695242816	0.10059999999999995	-0.03240000000000003	1.1
841.3865800767234	0.10483333333333328	-0.03533333333333336	1.1
841.6047780747363	0.11059999999999995	-0.03586666666666669	1.1
841.9199034379136	0.10516666666666662	-0.03520000000000003	1.1
842.1293686565555	0.11066666666666664	-0.036800000000000034	1.1
842.1293686565555	0.11346666666666665	-0.0362666666666667	1.1
842.5494825070539	0.10626666666666663	-0.03573333333333337	1.1
842.8743753480483	0.10626666666666663	-0.035466666666666695	1.1
842.6524847463147	0.1124333333333333	-0.035466666666666695	1.1
842.6524847463147	0.1073333333333333	-0.03613333333333337	1.1
842.9703127077129	0.11099999999999997	-0.03640000000000003	1.1
843.0750340039365	0.10986666666666663	-0.035600000000000034	1.1
843.599098145765	0.1075333333333333	-0.03360000000000003	1.1
844.3441245007166	0.10689999999999995	-0.034266666666666695	1.1
844.3441245007166	0.10719999999999995	-0.03520000000000003	1.1
844.447964568284	0.11433333333333327	-0.03453333333333337	1.1
844.4479156868548	0.10806666666666663	-0.03520000000000003	1.1
844.7723893924273	0.11186666666666663	-0.03333333333333336	1.1
844.7723893924273	0.11186666666666663	-0.0346666666666667	1.1
844.728773125161	0.11039999999999997	-0.030266666666666695	1.1
844.87342064677	0.10499999999999995	-0.030266666666666695	1.1
844.9813951190825	0.1124333333333333	-0.03333333333333336	1.1
844.9814582544567	0.10336666666666663	-0.0346666666666667	1.1
844.9799029235263	0.10519999999999996	-0.0346666666666667	1.1
844.772512421207	0.10516666666666662	-0.03533333333333336	1.1
844.446287059843	0.10486666666666662	-0.03333333333333336	1.1
844.3451488818848	0.10499999999999995	-0.035600000000000034	1.1
844.3452003123302	0.11119999999999995	-0.0338666666666667	1.1
844.3452003123302	0.10649999999999997	-0.03586666666666669	1.1
844.2362369404073	0.10279999999999995	-0.03373333333333336	1.1
843.395109292449	0.10366666666666663	-0.03333333333333336	1.1
843.0751073634018	0.10496666666666662	-0.03400000000000003	1.1
842.9706259204645	0.10496666666666662	-0.03413333333333336	1.1
842.9706259204645	0.10876666666666661	-0.03613333333333337	1.1
842.8701583347155	0.10786666666666661	-0.03613333333333337	1.1
842.6577312356017	0.10846666666666661	-0.0334666666666667	1.1
842.6524513760728	0.1098333333333333	-0.0350666666666667	1.1
842.6524513760728	0.10696666666666663	-0.03333333333333336	1.1
842.2324106485	0.10839999999999994	-0.03373333333333336	1.1
841.6057325291195	0.11099999999999997	-0.03520000000000003	1.1
841.6081792064668	0.11593333333333329	-0.037600000000000036	1.1
841.3893728968169	0.1075666666666666	-0.03533333333333336	1.1
841.3893728968169	0.11306666666666662	-0.03520000000000003	1.1
841.2917810293457	0.10456666666666663	-0.03413333333333336	1.1
840.9777337832352	0.10456666666666663	-0.03413333333333336	1.1
840.8723610763983	0.10143333333333328	-0.03320000000000003	1.1
840.8723610763983	0.09943333333333329	-0.03320000000000003	1.1
840.8683367216452	0.10553333333333328	-0.0334666666666667	1.1
840.6642416283285	0.11043333333333327	-0.03533333333333336	1.1
840.4396305401726	0.1074333333333333	-0.03320000000000003	1.1
840.4396305401726	0.10523333333333329	-0.03520000000000003	1.1
840.4485689086946	0.11656666666666664	-0.03320000000000003	1.1
840.1371171589202	0.11039999999999994	-0.032533333333333365	1.1
839.826297645064	0.11083333333333328	-0.0338666666666667	1.1
839.4992475393062	0.10473333333333329	-0.03373333333333336	1.1
839.4992475393062	0.10473333333333329	-0.034800000000000025	1.1
839.2938223397249	0.10536666666666662	-0.034933333333333365	1.1
839.0874964988983	0.10439999999999995	-0.034933333333333365	1.1
838.983365533343	0.10299999999999995	-0.031600000000000024	1.1
838.983365533343	0.10833333333333328	-0.03533333333333336	1.1
838.8748237428958	0.10089999999999995	-0.03373333333333336	1.1
838.246739883222	0.1087333333333333	-0.03453333333333337	1.1
838.246739883222	0.11119999999999995	-0.03453333333333337	1.1
837.7316237490288	0.10109999999999995	-0.03320000000000003	1.1
837.7316237490288	0.10586666666666661	-0.03453333333333337	1.1
837.7304464572414	0.09979999999999996	-0.031200000000000026	1.1
837.4185289778087	0.1094666666666666	-0.03240000000000003	1.1
837.2190007554298	0.1094666666666666	-0.0346666666666667	1.1
837.2190007554298	0.10939999999999996	-0.03533333333333336	1.1
836.8470605879389	0.10683333333333328	-0.03533333333333336	1.1
836.5828136506101	0.10866666666666665	-0.03520000000000003	1.1
836.5827994651632	0.1053333333333333	-0.032533333333333365	1.1
836.5827994651632	0.10809999999999995	-0.03573333333333337	1.1
836.42211070165	0.10893333333333331	-0.03653333333333337	1.1
836.0614420690102	0.10296666666666662	-0.0338666666666667	1.1
836.061279165704	0.1100666666666666	-0.034933333333333365	1.1
835.7506140775914	0.11416666666666662	-0.03520000000000003	1.1
835.7506140775914	0.11269999999999994	-0.03573333333333337	1.1
835.549682906623	0.11269999999999994	-0.0350666666666667	1.1
835.442147736452	0.11653333333333327	-0.02506666666666669	1.1
835.2383286196371	0.11319999999999995	-0.02506666666666669	1.1
835.2383286196371	0.12013333333333329	-0.009200000000000009	1.1
835.029086312913	0.12823333333333328	0.04146666666666671	1.1
834.8187855496576	0.15519999999999995	0.14920000000000014	1.1
834.3009774935509	0.19066666666666657	0.5217333333333334	1.1
834.51562237205	0.20443333333333327	0.7232	1.1
834.51562237205	0.20443333333333327	0.7232	1.1
833.847988133709	0.20443333333333327	0.7232	1.1
833.8942192973919	0.20443333333333327	0.7232	1.1
833.4751069886543	0.1978999999999999	1.1598666666666668	1.1
833.4751069886543	0.18786666666666663	1.3025333333333338	1.1
833.3758127695617	0.1876666666666666	1.4064	1.1
833.3796442519155	0.19219999999999993	1.4097333333333333	1.1
832.9645283861114	0.17083333333333325	1.309866666666667	1.1
832.9593962268033	0.17599999999999993	1.3724000000000003	1.1
832.9593962268033	0.17599999999999993	1.3957333333333335	1.1
832.9593962268033	0.18516666666666662	1.3812000000000002	1.1
832.5524745915667	0.1647666666666666	1.3812000000000002	1.1
832.2420191028441	0.17286666666666659	1.3929333333333336	1.1
832.2420191028441	0.16759999999999994	1.3293333333333335	1.1
831.7324186547934	0.17089999999999994	1.4138666666666666	1.1
831.7304874079077	0.16069999999999993	1.3233333333333337	1.1
831.7304874079077	0.15646666666666662	1.3089333333333335	1.1
831.2148115950351	0.1667666666666666	1.4686666666666666	1.1
831.2148115950351	0.16809999999999992	1.4801333333333333	1.1
831.2149704193619	0.16596666666666662	1.48	1.1
830.9162299848894	0.1707333333333333	1.3972	1.1
830.5012651526415	0.1707333333333333	1.3841333333333334	1.1
830.5012651526415	0.1619333333333333	1.4737333333333333	1.1
830.3968974128303	0.17483333333333329	1.4737333333333333	1.1
830.3988352923645	0.16853333333333329	1.4801333333333333	1.1
829.9806543276218	0.16529999999999997	1.5260000000000002	1.1
829.9851522980273	0.16243333333333326	1.3970666666666667	1.1
829.9851522980273	0.1645666666666666	1.3983999999999999	1.1
829.4757528908281	0.16099999999999995	1.3424000000000005	1.1
829.2336527030739	0.16036666666666663	1.3968000000000003	1.1
829.2653827587711	0.1637333333333333	1.4387999999999999	1.1
829.2653827587711	0.1623666666666666	1.3209333333333335	1.1
828.8601251582518	0.15469999999999995	1.3458666666666668	1.1
828.7612291609404	0.15469999999999995	1.4646666666666666	1.1
828.7614310859861	0.16336666666666658	1.4646666666666666	1.1
828.7614310859861	0.16396666666666662	1.4030666666666665	1.1
828.3482163476694	0.15919999999999995	1.409333333333333	1.1
828.0048699726868	0.1596666666666666	1.4742666666666666	1.1
828.0048699726868	0.16393333333333326	1.48	1.1
827.2423891492042	0.1694666666666666	1.4209333333333332	1.1
827.2423891492042	0.1609333333333333	1.3785333333333336	1.1
827.3398223435089	0.16273333333333326	1.334	1.1
827.0333995276139	0.1759666666666666	1.376266666666667	1.1
826.8334094644896	0.15893333333333326	1.3913333333333335	1.1
826.8334094644896	0.15893333333333326	1.2742666666666669	1.1
826.832289839621	0.15659999999999993	1.281866666666667	1.1
826.1165360821168	0.16599999999999995	1.281866666666667	1.1
825.7146194975904	0.16783333333333328	1.3737333333333337	1.1
825.7163894349403	0.16699999999999993	1.4076	1.1
825.7163894349403	0.1552666666666666	1.320266666666667	1.1
825.7090861083369	0.16309999999999994	1.354266666666667	1.1
825.7090861083369	0.17049999999999993	1.3960000000000001	1.1
825.3117351225662	0.17919999999999991	1.4726666666666666	1.1
825.3117351225662	0.1703666666666666	1.3996	1.1
825.3099912586707	0.1635666666666666	1.3317333333333337	1.1
825.2133268304536	0.17079999999999992	1.2649333333333335	1.1
824.9028008694638	0.17079999999999992	1.3453333333333335	1.1
824.8023539075857	0.1685666666666666	1.4541333333333333	1.1
824.8023539075857	0.16503333333333325	1.4541333333333333	1.1
824.4036897097575	0.1670666666666666	1.3452000000000002	1.1
824.4036897097575	0.17289999999999991	1.322266666666667	1.1
823.9997191922611	0.1728666666666666	1.339466666666667	1.1
823.9997191922611	0.1689666666666666	1.3937333333333333	1.1
823.9025358035906	0.17109999999999995	1.3814666666666668	1.1
823.8996695465472	0.17359999999999995	1.3512	1.1
823.4943878667873	0.17023333333333326	1.4174666666666667	1.1
823.4991619165938	0.17569999999999994	1.48	1.1
823.4991619165938	0.1764666666666666	1.4771999999999998	1.1
822.2930475198212	0.1764666666666666	1.3226666666666669	1.1
822.2930475198212	0.17846666666666658	1.3178666666666672	1.1
822.1847648725708	0.17119999999999996	1.3178666666666672	1.1
822.1847648725708	0.18543333333333328	1.3202666666666667	1.1
821.8863803140935	0.18089999999999995	1.3201333333333336	1.1
821.8891295070196	0.17779999999999993	1.4016	1.1
821.8862185212151	0.17063333333333328	1.3945333333333334	1.1
821.7953337291552	0.17643333333333328	1.339466666666667	1.1
821.7953337291552	0.17243333333333327	1.3320000000000005	1.1
821.3882908280738	0.1829999999999999	1.3214666666666668	1.1
821.0855720329697	0.1765666666666666	1.3840000000000001	1.1
820.9914369885882	0.18059999999999993	1.3998666666666668	1.1
820.9914369885882	0.18059999999999993	1.3983999999999999	1.1
820.5882364347133	0.18143333333333325	1.3983999999999999	1.1
820.5854234962443	0.18209999999999993	1.3204000000000005	1.1
819.8853698734989	0.17979999999999993	1.3244000000000002	1.1
819.6945170082352	0.17259999999999992	1.2941333333333336	1.1
819.6945170082352	0.18706666666666658	1.374666666666667	1.1
819.6945170082352	0.1825999999999999	1.371466666666667	1.1
818.6880343103271	0.17693333333333328	1.2969333333333337	1.1
818.5953602626346	0.1858333333333333	1.3202666666666667	1.1
818.5953602626346	0.17689999999999992	1.2189333333333336	1.1
818.5953631842332	0.17479999999999996	1.16	1.1
818.5950984320565	0.17479999999999996	1.2057333333333335	1.1
818.3373634220372	0.1748666666666666	1.2448000000000001	1.1
818.3373634220372	0.1786666666666666	1.2448000000000001	1.1
818.1955798874851	0.18253333333333324	1.2068000000000003	1.1
818.1944516986538	0.17569999999999994	1.2393333333333336	1.1
817.7991274531481	0.19253333333333328	1.3201333333333336	1.1
817.7991274531481	0.17753333333333327	1.16	1.1
817.7991274531481	0.17916666666666659	1.1698666666666668	1.1
817.3072574928417	0.1761666666666666	1.2442666666666669	1.1
816.811486278087	0.17439999999999992	1.2749333333333337	1.1
816.811486278087	0.1963666666666666	1.3181333333333336	1.1
816.811486278087	0.18759999999999996	1.3196000000000003	1.1
816.2103934889191	0.18759999999999996	1.1657333333333335	1.1
816.2103297966504	0.18319999999999992	1.1657333333333335	1.1
815.3262306001027	0.17973333333333325	1.16	1.1
815.1367046735655	0.19119999999999993	1.3353333333333337	1.1
815.1367046735655	0.17689999999999992	1.2836	1.1
815.1367204747845	0.18013333333333326	1.16	1.1
814.7400626313823	0.17009999999999992	1.16	1.1
814.7400626313823	0.19739999999999994	1.3581333333333336	1.1
814.7400626313823	0.20016666666666658	1.4002666666666668	1.1
814.7402394703367	0.19979999999999992	1.4002666666666668	1.1
814.5348936973487	0.18723333333333325	1.3998666666666668	1.1
814.5342887583973	0.18723333333333325	1.3868000000000003	1.1
814.0461700914426	0.1937666666666666	1.3710666666666669	1.1
814.0461700914426	0.19389999999999993	1.3710666666666669	1.1
814.0455567067064	0.1894333333333333	1.2460000000000002	1.1
814.0429121590321	0.17949999999999994	1.2400000000000002	1.1
813.1636911044762	0.1814666666666666	1.2444000000000002	1.1
813.1636911044762	0.19909999999999992	1.2949333333333335	1.1
813.1640717036274	0.19283333333333327	1.2810666666666668	1.1
812.8646254687521	0.20593333333333327	1.3200000000000003	1.1
812.6761606795907	0.19209999999999994	1.3230666666666668	1.1
811.7980555302447	0.18549999999999991	1.3348000000000002	1.1
811.7980555302447	0.19239999999999993	1.2080000000000004	1.1
811.7962912483515	0.19239999999999993	1.16	1.1
811.5027022383659	0.18953333333333325	1.1458666666666668	1.1
811.4068338707766	0.18423333333333328	1.1458666666666668	1.1
811.4068338707766	0.18516666666666662	1.1636000000000002	1.1
811.4069237183205	0.19613333333333327	1.2892000000000003	1.1
811.4056555460318	0.20489999999999994	1.3249333333333335	1.1
811.4056555460318	0.18566666666666662	1.320266666666667	1.1
811.4056555460318	0.20259999999999992	1.3318666666666668	1.1
811.1071710651185	0.2013666666666666	1.4102666666666666	1.1
811.1039093443336	0.20913333333333328	1.4796	1.1
810.7244615957778	0.20186666666666658	1.3574666666666668	1.1
810.6250851699979	0.1872999999999999	1.2608000000000001	1.1
810.6250851699979	0.1872999999999999	1.3062666666666671	1.1
810.2335109983675	0.19839999999999994	1.1616	1.1
809.5486162069377	0.18563333333333326	1.1616	1.1
809.4545248432373	0.1827666666666666	1.1622666666666668	1.1
809.4545248432373	0.18646666666666661	1.16	1.1
809.3597752512459	0.1909666666666666	1.16	1.1
809.4552575102476	0.19893333333333327	1.2156000000000002	1.1
808.1945403475784	0.20169999999999993	1.2565333333333335	1.1
808.20070177599	0.1862666666666666	1.1872	1.1
808.20070177599	0.18956666666666658	1.16	1.1
808.194462556378	0.18859999999999993	1.1604	1.1
808.006682449684	0.1896666666666666	1.1908	1.1
808.0108785396392	0.1896666666666666	1.1933333333333336	1.1
808.0108785396392	0.19146666666666662	1.195066666666667	1.1
807.9413266333398	0.19229999999999994	1.195066666666667	1.1
807.8052935535159	0.19829999999999995	1.2218666666666669	1.1
807.711856061824	0.18903333333333328	1.2488000000000004	1.1
807.711884052213	0.18689999999999993	1.2420000000000002	1.1
807.711884052213	0.1829666666666666	1.162666666666667	1.1
807.4210185221903	0.1899666666666666	1.16	1.1
807.4190394586673	0.18823333333333328	1.1521333333333337	1.1
807.0364847264105	0.20113333333333325	1.1690666666666667	1.1
807.0364847264105	0.18463333333333326	1.1598666666666668	1.1
806.6465766134753	0.18223333333333327	1.1630666666666667	1.1
806.0718217003879	0.18223333333333327	1.2665333333333337	1.1
806.0707988832195	0.19113333333333324	1.2665333333333337	1.1
805.7784133873824	0.18509999999999993	1.2581333333333335	1.1
805.7784133873824	0.1853666666666666	1.205466666666667	1.1
804.8705348981694	0.2013666666666666	1.2437333333333336	1.1
804.8289429634154	0.1853666666666666	1.1620000000000001	1.1
804.6282881926172	0.19323333333333323	1.1897333333333335	1.1
804.6282881926172	0.18399999999999997	1.16	1.1
804.4399312653601	0.1926999999999999	1.1576000000000002	1.1
804.4390669372293	0.19049999999999995	1.1016000000000001	1.1
804.3483330407672	0.18519999999999995	1.0812	1.1
804.3483330407672	0.18519999999999995	1.1264000000000003	1.1
804.3410254109158	0.18379999999999996	1.1349333333333333	1.1
804.2528595149986	0.18359999999999993	1.1349333333333333	1.1
804.1531467513947	0.1835666666666666	1.157066666666667	1.1
803.667478254676	0.18703333333333327	1.1185333333333336	1.1
803.667478254676	0.19079999999999994	1.1617333333333335	1.1
803.480650123762	0.19149999999999995	1.16	1.1
802.7225342304475	0.18609999999999996	1.16	1.1
802.71848011222	0.18769999999999992	1.16	1.1
802.71848011222	0.20103333333333326	1.185466666666667	1.1
802.7216694842213	0.18999999999999995	1.2525333333333337	1.1
801.3880574937481	0.1795666666666666	1.1521333333333335	1.1
801.3921903083456	0.18456666666666657	1.0852	1.1
801.3902232113135	0.18456666666666657	1.16	1.1
801.3902232113135	0.1835666666666666	1.1680000000000001	1.1
801.1909123726284	0.18883333333333327	1.1680000000000001	1.1
801.1934096546698	0.1951666666666666	1.2277333333333336	1.1
801.1904087257836	0.19739999999999994	1.2465333333333337	1.1
801.1904087257836	0.1956666666666666	1.1798666666666668	1.1
801.0985995300061	0.1789666666666666	1.0824	1.1
800.9095773634606	0.18449999999999994	1.0492000000000001	1.1
800.8985492805996	0.1812666666666666	1.0390666666666668	1.1
800.8985492805996	0.17693333333333328	1.0542666666666667	1.1
800.6229766015449	0.19006666666666658	1.1525333333333334	1.1
800.3390722094799	0.18283333333333326	1.1262666666666667	1.1
800.3388634708749	0.18283333333333326	1.0801333333333334	1.1
