wavelength(nm)	flourescence PMT(V)	ti_saph Power (V)	Gain (V)
800.4304089393161	0.19093333333333326	1.1597333333333333	1.1
800.4312223076784	0.18176666666666663	1.0786666666666667	1.1
800.8117725420535	0.18543333333333328	1.1292000000000002	1.1
800.8117725420535	0.1972333333333333	1.1402666666666668	1.1
800.8103671454986	0.1863666666666666	1.1532000000000002	1.1
800.9013055261423	0.18213333333333326	1.0793333333333335	1.1
801.0992252181894	0.18213333333333326	1.0782666666666667	1.1
801.0947043433226	0.17069999999999994	1.0798666666666668	1.1
801.0947043433226	0.17566666666666658	1.0798666666666668	1.1
801.0994162567787	0.17679999999999993	1.0786666666666667	1.1
801.2851682241746	0.18849999999999995	1.0790666666666668	1.1
801.2851730339886	0.18779999999999994	1.1593333333333335	1.1
801.3881994382682	0.18883333333333327	1.1636000000000002	1.1
801.3881994382682	0.18343333333333325	1.1418666666666668	1.1
801.3841354640196	0.17739999999999995	1.082	1.1
802.8914076084903	0.19216666666666662	1.1484000000000003	1.1
802.7201005365803	0.17813333333333328	1.0942666666666667	1.1
802.7225106506371	0.18233333333333326	1.1597333333333335	1.1
802.7225106506371	0.18233333333333326	1.16	1.1
802.7227705030874	0.18419999999999995	1.1629333333333336	1.1
803.4838669950066	0.1864666666666666	1.1629333333333336	1.1
803.3812800676426	0.1887999999999999	1.1498666666666668	1.1
803.3812800676426	0.1873666666666666	1.1566666666666667	1.1
804.2724135651024	0.1910666666666666	1.189066666666667	1.1
804.2724135651024	0.17873333333333324	1.1574666666666666	1.1
804.2554811273874	0.19103333333333328	1.1252000000000002	1.1
804.3507687817557	0.18839999999999993	1.1449333333333336	1.1
804.3507687817557	0.18179999999999993	1.1592	1.1
804.4430723167376	0.1842666666666666	1.1073333333333335	1.1
804.4798306239354	0.18053333333333327	1.0844	1.1
804.6324622569358	0.18053333333333327	1.1401333333333334	1.1
804.6270630883781	0.1956666666666666	1.1401333333333334	1.1
804.6270630883781	0.17999999999999994	1.1572000000000002	1.1
804.8210992393051	0.17779999999999993	1.1473333333333335	1.1
804.8205277577764	0.18956666666666658	1.1794666666666667	1.1
805.7802276079235	0.19179999999999992	1.1676000000000002	1.1
805.9165473923479	0.2016666666666666	1.1638666666666668	1.1
805.9165473923479	0.19229999999999994	1.1613333333333336	1.1
806.0748686200745	0.1961666666666666	1.244666666666667	1.1
806.0748686200745	0.19243333333333326	1.2830666666666668	1.1
806.846927826707	0.19299999999999992	1.1812	1.1
806.846927826707	0.19156666666666658	1.1600000000000001	1.1
806.9445041924425	0.19156666666666658	1.16	1.1
807.0318255911005	0.18013333333333328	1.16	1.1
807.4189096774058	0.1919666666666666	1.1762666666666668	1.1
807.4189096774058	0.18896666666666662	1.1594666666666669	1.1
807.4189096774058	0.1889666666666666	1.1242666666666667	1.1
807.7171642428649	0.18776666666666658	1.1052	1.1
807.8062034561399	0.1888666666666666	1.1033333333333333	1.1
807.8062270670054	0.20293333333333327	1.16	1.1
807.9013979488266	0.19063333333333327	1.1985333333333335	1.1
807.9013979488266	0.19646666666666662	1.2596000000000003	1.1
808.0011400788145	0.18859999999999993	1.259866666666667	1.1
808.0088896602505	0.18859999999999993	1.1662666666666668	1.1
808.1988137095664	0.19613333333333327	1.237866666666667	1.1
808.1988021056953	0.19793333333333327	1.237866666666667	1.1
808.1988021056953	0.1984666666666666	1.2817333333333336	1.1
808.197985100322	0.19543333333333326	1.16	1.1
809.3574269996388	0.18156666666666663	1.1237333333333335	1.1
809.3574269996388	0.20926666666666657	1.2489333333333335	1.1
809.3574269996388	0.1978999999999999	1.2732	1.1
809.4540982607281	0.19393333333333326	1.2677333333333336	1.1
809.4586682801537	0.20149999999999993	1.2360000000000002	1.1
809.4540919403377	0.18566666666666662	1.2056000000000002	1.1
809.9410030926659	0.18566666666666662	1.2336	1.1
809.9410030926659	0.1945666666666666	1.1725333333333334	1.1
810.2347816651385	0.19639999999999994	1.1725333333333334	1.1
810.6228491683858	0.19423333333333329	1.283866666666667	1.1
811.110596182099	0.21083333333333323	1.3172000000000004	1.1
811.110596182099	0.19776666666666662	1.301066666666667	1.1
811.110596182099	0.20053333333333329	1.3386666666666667	1.1
811.1118003812273	0.20049999999999993	1.3957333333333335	1.1
811.3103947717761	0.19923333333333326	1.3121333333333336	1.1
811.311404971204	0.1769666666666666	1.16	1.1
811.5005904658036	0.19509999999999994	1.16	1.1
811.5005904658036	0.19079999999999994	1.2668000000000001	1.1
811.4099574150927	0.19079999999999994	1.2592	1.1
811.5016849313387	0.19009999999999996	1.1641333333333335	1.1
811.4994397737754	0.18073333333333327	1.1641333333333335	1.1
811.7951099545804	0.17313333333333328	1.16	1.1
811.7951099545804	0.18019999999999997	1.16	1.1
812.6774523122829	0.1748666666666666	1.1593333333333335	1.1
812.6774523122829	0.19393333333333326	1.305866666666667	1.1
813.0730452383596	0.18949999999999995	1.1953333333333336	1.1
813.0730452383596	0.18439999999999993	1.16	1.1
813.1629352668283	0.1799666666666666	1.16	1.1
813.1641162648716	0.19009999999999994	1.16	1.1
813.1641162648716	0.17753333333333327	1.1806666666666668	1.1
814.0476893511529	0.17753333333333327	1.2426666666666668	1.1
814.0476893511529	0.1896666666666666	1.2613333333333336	1.1
814.5351626333592	0.1925666666666666	1.2613333333333336	1.1
814.7400668501873	0.19763333333333327	1.3610666666666669	1.1
814.7352607506747	0.19319999999999993	1.3897333333333335	1.1
814.7398268097489	0.1974999999999999	1.3992	1.1
814.7398268097489	0.19299999999999992	1.3989333333333336	1.1
814.741148117546	0.19613333333333324	1.3978666666666668	1.1
814.7398755340854	0.1975666666666666	1.398	1.1
815.3236157326016	0.1820666666666666	1.2880000000000003	1.1
815.321851424532	0.18723333333333328	1.2886666666666668	1.1
815.321851424532	0.18229999999999993	1.3217333333333336	1.1
815.3228596823585	0.18229999999999993	1.3216000000000003	1.1
815.3241693613437	0.1857666666666666	1.3213333333333337	1.1
816.2082105191678	0.1958999999999999	1.3213333333333337	1.1
816.208214020156	0.17573333333333327	1.1733333333333336	1.1
816.208214020156	0.17569999999999994	1.16	1.1
816.9081209716062	0.18379999999999994	1.16	1.1
817.0067634358256	0.18093333333333328	1.2656000000000003	1.1
817.4038911973352	0.18266666666666662	1.3029333333333335	1.1
817.4038911973352	0.18916666666666662	1.3182666666666671	1.1
817.4039830388309	0.1850666666666666	1.2340000000000002	1.1
817.795420422161	0.17253333333333326	1.1601333333333335	1.1
818.1928699121622	0.17389999999999992	1.1602666666666668	1.1
818.2884976700483	0.17389999999999992	1.2945333333333335	1.1
818.2884976700483	0.18103333333333327	1.244666666666667	1.1
818.2927124697219	0.1810666666666666	1.244666666666667	1.1
818.288920667979	0.17843333333333328	1.1982666666666668	1.1
818.5921548557512	0.17879999999999993	1.1909333333333336	1.1
818.4954922647164	0.1745333333333333	1.2394666666666667	1.1
818.4954922647164	0.16673333333333326	1.1634666666666669	1.1
818.5942494913119	0.17343333333333327	1.1602666666666668	1.1
818.6890366383587	0.1794666666666666	1.2380000000000002	1.1
819.8353576141799	0.16853333333333326	1.3246666666666669	1.1
819.7871749432092	0.17133333333333328	1.2897333333333336	1.1
819.7871749432092	0.1795333333333333	1.3502666666666667	1.1
819.7916278716468	0.1795333333333333	1.3370666666666668	1.1
819.7890382242196	0.1780666666666666	1.322266666666667	1.1
820.588283545774	0.1769666666666666	1.322266666666667	1.1
820.5864908468783	0.17819999999999994	1.3226666666666669	1.1
820.5864908468783	0.17939999999999992	1.309466666666667	1.1
820.9910270778926	0.17543333333333327	1.3188000000000004	1.1
821.0858566691431	0.17893333333333325	1.335466666666667	1.1
821.0847891790709	0.18266666666666662	1.3993333333333333	1.1
821.0847891790709	0.18113333333333329	1.3952	1.1
821.7932897553613	0.17779999999999993	1.3962666666666665	1.1
821.793268162752	0.17109999999999995	1.385066666666667	1.1
821.793268162752	0.17013333333333328	1.3764000000000003	1.1
821.894806976667	0.17013333333333328	1.3816000000000002	1.1
821.894806976667	0.17693333333333328	1.3600000000000003	1.1
822.1968033257245	0.17633333333333326	1.3600000000000003	1.1
822.1924105450555	0.17643333333333325	1.3204000000000005	1.1
822.2899168756046	0.1762666666666666	1.3201333333333336	1.1
822.2908593860188	0.16693333333333327	1.2529333333333335	1.1
822.2908593860188	0.16503333333333325	1.2385333333333335	1.1
822.690354429465	0.18183333333333326	1.3661333333333334	1.1
823.4942377246801	0.17379999999999995	1.4473333333333331	1.1
823.4942537099997	0.18173333333333327	1.4751999999999998	1.1
823.4942191871178	0.17819999999999994	1.4770666666666667	1.1
823.4942191871178	0.1722333333333333	1.4038666666666666	1.1
824.096030094225	0.1722333333333333	1.3293333333333335	1.1
824.0974929171903	0.17006666666666662	1.3301333333333336	1.1
824.4027160396195	0.1637333333333333	1.3301333333333336	1.1
824.5009773514387	0.17089999999999994	1.3194666666666668	1.1
824.5009773514387	0.1647666666666666	1.3184000000000002	1.1
824.8023900393633	0.16689999999999994	1.3004000000000002	1.1
824.807740549332	0.1702666666666666	1.4362666666666666	1.1
825.210023327894	0.16949999999999993	1.4512	1.1
825.3122728280165	0.17233333333333328	1.3208000000000002	1.1
825.3122728280165	0.17036666666666658	1.3937333333333333	1.1
825.3122728280165	0.1633666666666666	1.4032000000000002	1.1
825.7124159128548	0.1646666666666666	1.4693333333333332	1.1
825.7136746308996	0.1745666666666666	1.3602666666666667	1.1
825.7154748040197	0.1745666666666666	1.3229333333333337	1.1
825.7154748040197	0.16299999999999992	1.3229333333333337	1.1
825.7154718372636	0.16719999999999993	1.319066666666667	1.1
825.7154718372636	0.1615666666666666	1.3101333333333336	1.1
826.8309355334999	0.16963333333333327	1.4521333333333333	1.1
826.8309355334999	0.1624666666666666	1.4012	1.1
827.0296137796004	0.1560333333333333	1.3213333333333337	1.1
827.0296137796004	0.16659999999999994	1.3924	1.1
827.237404534067	0.16249999999999995	1.3466666666666667	1.1
827.3372243833448	0.15696666666666664	1.3436000000000001	1.1
827.3372243833448	0.17049999999999993	1.3216	1.1
827.7469385338293	0.17049999999999993	1.48	1.1
828.0532327671754	0.1606666666666666	1.4737333333333333	1.1
828.2497214287478	0.1687666666666666	1.4737333333333333	1.1
828.6588774644489	0.17473333333333324	1.48	1.1
828.6588774644489	0.1645666666666666	1.48	1.1
828.7536654091629	0.15109999999999993	1.3186666666666669	1.1
828.8573619985472	0.1539666666666666	1.305066666666667	1.1
829.3879111765405	0.15453333333333327	1.356266666666667	1.1
829.265642645936	0.15786666666666663	1.3476000000000004	1.1
829.265642645936	0.15176666666666663	1.326266666666667	1.1
829.3815770811474	0.16956666666666662	1.4469333333333334	1.1
829.4809126395872	0.1598333333333333	1.4157333333333335	1.1
829.8855690475494	0.1598333333333333	1.323466666666667	1.1
830.0856569999141	0.16209999999999994	1.382666666666667	1.1
830.0856569999141	0.1653666666666666	1.382666666666667	1.1
829.9842424179803	0.16186666666666663	1.3869333333333336	1.1
830.3939330970501	0.16189999999999993	1.3873333333333335	1.1
830.0702934765673	0.1583666666666666	1.4014666666666669	1.1
830.0702934765673	0.1612666666666666	1.4401333333333333	1.1
831.1140869787059	0.16059999999999997	1.3156	1.1
831.2139552573625	0.16589999999999994	1.322	1.1
831.5326370629798	0.16939999999999994	1.3916000000000002	1.1
831.5287758716236	0.1716666666666666	1.4496	1.1
831.5287758716236	0.15316666666666662	1.320666666666667	1.1
831.7251502296299	0.15316666666666662	1.2401333333333335	1.1
832.1385672590085	0.15689999999999993	1.2442666666666669	1.1
832.243368667691	0.15183333333333326	1.2442666666666669	1.1
832.2365794484151	0.1628666666666666	1.346666666666667	1.1
832.2365794484151	0.1713666666666666	1.3200000000000003	1.1
832.2365794484151	0.16759999999999994	1.3473333333333335	1.1
832.6518632739619	0.16933333333333328	1.4701333333333333	1.1
832.9660947237991	0.17279999999999995	1.4408	1.1
832.9660029763141	0.17583333333333329	1.3998666666666668	1.1
832.9660029763141	0.18379999999999994	1.3990666666666667	1.1
833.3721875113437	0.17759999999999992	1.244666666666667	1.1
833.4748257257362	0.1718666666666666	1.2553333333333336	1.1
833.3738636367244	0.18719999999999995	1.3701333333333336	1.1
833.893393165266	0.18719999999999995	1.3870666666666667	1.1
833.893393165266	0.20259999999999992	1.1558666666666668	1.1
833.8881348929699	0.19533333333333328	1.1558666666666668	1.1
833.9895077305405	0.1990666666666666	1.124	1.1
834.2982664320738	0.2146333333333333	1.1237333333333333	1.1
834.7190377270173	0.2425999999999999	1.0398666666666667	1.1
834.7190377270173	0.20123333333333326	0.5788000000000001	1.1
834.7156766923304	0.16283333333333327	0.25693333333333357	1.1
835.2343032610838	0.1388666666666666	0.11920000000000011	1.1
835.4399409012119	0.13459999999999994	0.033066666666666696	1.1
835.4399409012119	0.11889999999999996	-0.0009333333333333342	1.1
835.4356287200393	0.10946666666666663	-0.021466666666666686	1.1
835.6538923451665	0.10946666666666663	-0.033066666666666696	1.1
836.0615706971226	0.11349999999999995	-0.03360000000000003	1.1
836.0607907015178	0.10739999999999995	-0.03360000000000003	1.1
836.0607907015178	0.09953333333333328	-0.03173333333333336	1.1
836.6889877158052	0.11009999999999996	-0.030000000000000023	1.1
836.6890322819775	0.10629999999999995	-0.0334666666666667	1.1
836.7955306778243	0.10459999999999994	-0.031200000000000026	1.1
836.7953762446089	0.10493333333333328	-0.03106666666666669	1.1
836.7953762446089	0.11009999999999996	-0.03213333333333336	1.1
836.9917769716853	0.10663333333333329	-0.03173333333333336	1.1
837.0956953110282	0.10719999999999995	-0.02933333333333336	1.1
837.5191615188031	0.11323333333333328	-0.03106666666666669	1.1
837.7213674628589	0.11323333333333328	-0.03080000000000003	1.1
837.7213674628589	0.10796666666666663	-0.031333333333333366	1.1
837.7350115178608	0.1122333333333333	-0.031333333333333366	1.1
837.7256362056579	0.1099333333333333	-0.033066666666666696	1.1
838.1465866714727	0.1122333333333333	-0.031333333333333366	1.1
838.5337883936331	0.10029999999999996	-0.02933333333333336	1.1
838.5337883936331	0.1080333333333333	-0.031333333333333366	1.1
838.8824437026582	0.10306666666666663	-0.031866666666666696	1.1
839.0848461141628	0.10726666666666662	-0.03280000000000003	1.1
839.0881597520507	0.10583333333333328	-0.030533333333333357	1.1
839.5045637196883	0.11273333333333328	-0.031200000000000026	1.1
839.5045637196883	0.10056666666666661	-0.029600000000000026	1.1
839.4044905480586	0.10056666666666661	-0.031333333333333366	1.1
839.3953888585813	0.10696666666666663	-0.03106666666666669	1.1
840.4399820753588	0.11246666666666663	-0.03106666666666669	1.1
840.4399820753588	0.10679999999999995	-0.03146666666666669	1.1
840.4477947825728	0.1059333333333333	-0.0334666666666667	1.1
840.3477312798448	0.10576666666666662	-0.03333333333333336	1.1
840.3477312798448	0.10306666666666661	-0.030533333333333357	1.1
840.8666523993012	0.10293333333333328	-0.02813333333333336	1.1
840.8666523993012	0.10849999999999994	-0.03093333333333336	1.1
840.9708531038586	0.10639999999999995	-0.03213333333333336	1.1
841.2814954012647	0.10596666666666661	-0.030533333333333357	1.1
841.286179266643	0.10583333333333328	-0.030400000000000028	1.1
841.4977803661286	0.10583333333333328	-0.030266666666666695	1.1
841.4977803661286	0.10889999999999996	-0.028800000000000027	1.1
841.5544302629037	0.10079999999999996	-0.028800000000000027	1.1
841.7050245611255	0.10623333333333329	-0.03013333333333336	1.1
842.2327642639666	0.10566666666666663	-0.030666666666666693	1.1
842.3383672626165	0.10323333333333329	-0.032266666666666693	1.1
842.3383672626165	0.1055666666666666	-0.03400000000000003	1.1
842.7597685414008	0.1057666666666666	-0.03106666666666669	1.1
842.9779418743501	0.11463333333333328	-0.03080000000000003	1.1
843.07202971223	0.11519999999999996	-0.030533333333333357	1.1
843.4958256486104	0.10696666666666663	-0.02973333333333336	1.1
843.4958256486104	0.10309999999999997	-0.03013333333333336	1.1
843.8182394286155	0.10309999999999997	-0.03280000000000003	1.1
844.2411227205317	0.10729999999999995	-0.03280000000000003	1.1
844.4501397997319	0.11136666666666661	-0.029866666666666694	1.1
844.4518664517341	0.10403333333333328	-0.030400000000000028	1.1
844.4518664517341	0.11439999999999996	-0.03013333333333336	1.1
844.7700697424847	0.10496666666666662	-0.030400000000000028	1.1
844.7688730159981	0.10479999999999995	-0.029066666666666692	1.1
844.7693818877715	0.10726666666666664	-0.030400000000000028	1.1
844.7693818877715	0.10656666666666662	-0.02973333333333336	1.1
844.987403592166	0.10823333333333328	-0.03146666666666669	1.1
843.1217133782095	0.10549999999999994	-0.029866666666666694	1.1
843.0715775039713	0.10313333333333329	-0.032533333333333365	1.1
843.0730054861308	0.10563333333333327	-0.03240000000000003	1.1
842.3386299490827	0.10883333333333331	-0.03106666666666669	1.1
842.3386299490827	0.10399999999999997	-0.030666666666666693	1.1
842.1340010218541	0.10336666666666662	-0.029866666666666694	1.1
841.8084449758741	0.10336666666666662	-0.030400000000000028	1.1
841.6019794100453	0.10096666666666662	-0.030400000000000028	1.1
841.6019794100453	0.10406666666666661	-0.031600000000000024	1.1
841.7476239795003	0.10606666666666661	-0.031200000000000026	1.1
841.3836254964538	0.10273333333333329	-0.03106666666666669	1.1
841.2861829380045	0.1075333333333333	-0.032533333333333365	1.1
840.9712810593112	0.1122333333333333	-0.02946666666666669	1.1
840.9712810593112	0.10179999999999995	-0.02973333333333336	1.1
840.9737171054069	0.11293333333333327	-0.031333333333333366	1.1
840.862745253819	0.10236666666666662	-0.028666666666666694	1.1
840.5466164628411	0.1092333333333333	-0.031200000000000026	1.1
840.4468607651891	0.1092333333333333	-0.03013333333333336	1.1
840.4468607651891	0.10063333333333328	-0.02973333333333336	1.1
840.2996306391935	0.1054333333333333	-0.02973333333333336	1.1
839.9221361816836	0.11056666666666662	-0.03080000000000003	1.1
839.5010143156003	0.10496666666666662	-0.03080000000000003	1.1
839.5954742884861	0.10639999999999995	-0.031200000000000026	1.1
839.5954742884861	0.10696666666666663	-0.03240000000000003	1.1
839.1873169398382	0.11156666666666662	-0.033066666666666696	1.1
839.0876220301351	0.11249999999999995	-0.030000000000000023	1.1
839.0886434125975	0.11009999999999996	-0.03213333333333336	1.1
838.5642154069327	0.10549999999999995	-0.032266666666666693	1.1
838.5642154069327	0.10589999999999994	-0.031866666666666696	1.1
838.5645894071638	0.10589999999999994	-0.033066666666666696	1.1
838.1433558126865	0.1147333333333333	-0.03413333333333336	1.1
837.8335932410764	0.10899999999999996	-0.03413333333333336	1.1
837.833921570779	0.10696666666666663	-0.030400000000000028	1.1
837.833921570779	0.10956666666666663	-0.031333333333333366	1.1
837.5159591018246	0.10409999999999996	-0.03173333333333336	1.1
837.0954484514505	0.1041333333333333	-0.032533333333333365	1.1
837.0954259284763	0.10829999999999994	-0.03280000000000003	1.1
837.0954259284763	0.0962333333333333	-0.030533333333333357	1.1
837.1086762183912	0.10673333333333328	-0.029866666666666694	1.1
836.7955509629377	0.11279999999999997	-0.03240000000000003	1.1
836.6900664041985	0.10686666666666662	-0.02973333333333336	1.1
836.6889775454404	0.10686666666666662	-0.02933333333333336	1.1
836.6889775454404	0.11556666666666662	-0.029200000000000028	1.1
836.1672224362497	0.09479999999999995	-0.029200000000000028	1.1
835.7518366210861	0.10763333333333329	-0.03093333333333336	1.1
835.7504280529635	0.10663333333333327	-0.03080000000000003	1.1
835.7603545041661	0.10909999999999996	-0.03106666666666669	1.1
835.7603545041661	0.11283333333333329	-0.029866666666666694	1.1
835.4446921990989	0.10529999999999996	-0.028666666666666694	1.1
835.4434038735818	0.10953333333333329	-0.014533333333333346	1.1
835.2306627149698	0.12206666666666662	0.0034666666666666695	1.1
834.8167607548293	0.13326666666666662	0.04720000000000004	1.1
834.8167607548293	0.14979999999999993	0.1454666666666668	1.1
834.7153964137015	0.14979999999999993	0.2705333333333335	1.1
834.3048675097507	0.16949999999999993	0.9229333333333333	1.1
834.3019390275786	0.21669999999999992	0.9229333333333333	1.1
833.990430559479	0.23236666666666655	1.0798666666666668	1.1
833.990430559479	0.23053333333333323	1.1012	1.1
833.8921254308128	0.20473333333333324	1.2098666666666669	1.1
833.3756830844596	0.1940666666666666	1.1985333333333335	1.1
832.9052446126959	0.19833333333333325	1.4571999999999998	1.1
832.9052446126959	0.19016666666666662	1.4004	1.1
832.9052446126959	0.1871333333333333	1.3245333333333338	1.1
832.9579120020793	0.17453333333333326	1.3321333333333334	1.1
832.9650575142407	0.17133333333333328	1.3926666666666667	1.1
832.6545075875573	0.17133333333333328	1.4005333333333332	1.1
832.6545075875573	0.1820666666666666	1.4792	1.1
832.5520217107102	0.17913333333333326	1.4792	1.1
832.5559202692122	0.16389999999999993	1.4770666666666667	1.1
832.1353886379405	0.1671666666666666	1.3937333333333333	1.1
831.7269018806526	0.17393333333333327	1.4410666666666667	1.1
831.7269018806526	0.15989999999999996	1.3170666666666668	1.1
831.7228324797238	0.15683333333333327	1.2149333333333336	1.1
831.216120394467	0.1534666666666666	1.267466666666667	1.1
831.216120394467	0.17139999999999997	1.4793333333333332	1.1
831.2188149838095	0.1631666666666666	1.4370666666666667	1.1
831.2188149838095	0.16273333333333326	1.4290666666666665	1.1
830.8078454254276	0.16273333333333326	1.378666666666667	1.1
830.3956765633021	0.1640666666666666	1.3200000000000003	1.1
829.9861994169389	0.15883333333333327	1.3200000000000003	1.1
830.0857377983849	0.16003333333333328	1.336266666666667	1.1
830.0857377983849	0.15539999999999995	1.3225333333333338	1.1
829.9905046581506	0.15543333333333328	1.362266666666667	1.1
829.8862888600516	0.15813333333333326	1.3989333333333334	1.1
829.4720821756869	0.15759999999999993	1.3889333333333336	1.1
829.471347339438	0.1586333333333333	1.3252000000000002	1.1
829.471347339438	0.15889999999999996	1.3854666666666668	1.1
829.3736976397493	0.1584333333333333	1.4265333333333332	1.1
829.6082236705994	0.15693333333333329	1.4078666666666668	1.1
828.8645088212968	0.15693333333333329	1.3266666666666669	1.1
828.8645088212968	0.1629666666666666	1.4796	1.1
828.8609062398036	0.16673333333333326	1.4796	1.1
828.6577513042573	0.16563333333333327	1.362	1.1
828.251970458704	0.15803333333333328	1.325066666666667	1.1
828.2532842497694	0.16646666666666662	1.3812000000000002	1.1
828.2532842497694	0.16279999999999994	1.4413333333333334	1.1
827.8433270223134	0.15813333333333326	1.3984	1.1
827.7496233676325	0.16253333333333328	1.4701333333333333	1.1
827.3376477855647	0.16663333333333327	1.353866666666667	1.1
826.7420474295899	0.15723333333333328	1.3226666666666669	1.1
826.7420474295899	0.15859999999999994	1.3813333333333337	1.1
827.0267363189878	0.15859999999999994	1.3424	1.1
827.0267363189878	0.16639999999999994	1.2676000000000003	1.1
826.1190398880987	0.15539999999999993	1.2676000000000003	1.1
825.7164069219615	0.16109999999999994	1.3534666666666668	1.1
825.7164069219615	0.16669999999999993	1.3938666666666668	1.1
825.7174535105144	0.1696666666666666	1.3200000000000003	1.1
825.6185238541208	0.16179999999999992	1.3200000000000003	1.1
825.6160218775824	0.1651666666666666	1.3760000000000003	1.1
825.6160218775824	0.17139999999999994	1.4036000000000002	1.1
825.3085322607445	0.17029999999999992	1.4324000000000001	1.1
825.3085322607445	0.16733333333333328	1.3954666666666666	1.1
825.2090100408371	0.16109999999999994	1.319866666666667	1.1
824.9054984186737	0.16109999999999994	1.309066666666667	1.1
824.9054984186737	0.16959999999999995	1.4432	1.1
824.4072073534774	0.16819999999999993	1.4432	1.1
824.4040801442044	0.16336666666666658	1.2762666666666669	1.1
824.4040801442044	0.16303333333333328	1.2453333333333334	1.1
824.095953257826	0.1599666666666666	1.310266666666667	1.1
824.095953257826	0.16389999999999993	1.374266666666667	1.1
824.0025997096024	0.17363333333333328	1.3585333333333336	1.1
823.5008550025204	0.1583666666666666	1.3748000000000002	1.1
823.5008550025204	0.1735666666666666	1.4282666666666666	1.1
823.500893543337	0.17353333333333326	1.48	1.1
823.500893543337	0.1768333333333333	1.4657333333333333	1.1
823.500893543337	0.1768333333333333	1.3970666666666667	1.1
822.4807615178853	0.17229999999999993	1.2905333333333335	1.1
822.2881456557968	0.17586666666666662	1.2905333333333335	1.1
821.9819465826688	0.16919999999999993	1.2610666666666668	1.1
821.9819465826688	0.1786666666666666	1.3200000000000003	1.1
821.8925907293457	0.1716666666666666	1.3200000000000003	1.1
821.8914766847596	0.18293333333333328	1.3806666666666667	1.1
821.7935879148318	0.17589999999999995	1.3980000000000001	1.1
821.787964822379	0.17933333333333326	1.3733333333333337	1.1
821.787964822379	0.1698666666666666	1.3200000000000003	1.1
821.787964822379	0.17979999999999993	1.3210666666666668	1.1
821.0855199896479	0.17136666666666658	1.322266666666667	1.1
820.9925102735282	0.17136666666666658	1.3437333333333337	1.1
820.589179933407	0.16653333333333326	1.3173333333333337	1.1
820.589179933407	0.17929999999999993	1.3173333333333337	1.1
820.5893314326268	0.17436666666666661	1.3104000000000005	1.1
820.4927459286383	0.17983333333333326	1.3244000000000002	1.1
819.7913881294352	0.18609999999999996	1.3629333333333336	1.1
819.7913881294352	0.1873666666666666	1.3676000000000004	1.1
819.7900180608748	0.1847999999999999	1.3902666666666668	1.1
819.79002054922	0.18123333333333327	1.3885333333333334	1.1
818.5933228421773	0.17886666666666662	1.2526666666666668	1.1
818.687768605663	0.17389999999999997	1.1613333333333336	1.1
818.687768605663	0.18339999999999995	1.16	1.1
818.5931873516757	0.18339999999999995	1.16	1.1
818.5003881201717	0.1694666666666666	1.2190666666666667	1.1
818.2914860416862	0.18096666666666658	1.2190666666666667	1.1
818.2882568988147	0.17523333333333327	1.2344000000000002	1.1
818.2882568988147	0.18353333333333327	1.249466666666667	1.1
818.192985994534	0.1818666666666666	1.3196	1.1
817.8003257947801	0.1888666666666666	1.285066666666667	1.1
817.4929921533743	0.17239999999999994	1.163866666666667	1.1
817.3996527308697	0.18069999999999994	1.1785333333333334	1.1
817.3996527308697	0.17533333333333326	1.2396000000000003	1.1
816.9088216572145	0.18379999999999994	1.2472000000000003	1.1
816.9069503767142	0.1814666666666666	1.314266666666667	1.1
816.2091626411692	0.1814666666666666	1.2713333333333336	1.1
816.2091740090636	0.18689999999999993	1.16	1.1
816.2091740090636	0.1815666666666666	1.16	1.1
815.3219057430953	0.18859999999999993	1.1942666666666668	1.1
815.3213354003954	0.1915666666666666	1.3660000000000003	1.1
815.131128234249	0.19479999999999992	1.315066666666667	1.1
815.131128234249	0.18759999999999993	1.1962666666666668	1.1
814.7397952897537	0.1777666666666666	1.1700000000000002	1.1
814.7423967402054	0.20269999999999994	1.374266666666667	1.1
814.7397796832355	0.19989999999999994	1.3992	1.1
814.7400132819405	0.19733333333333325	1.3997333333333335	1.1
814.7400132819405	0.21063333333333326	1.3918666666666668	1.1
814.5497658655086	0.21063333333333326	1.334	1.1
814.1383109473167	0.1961666666666666	1.2421333333333335	1.1
814.1383109473167	0.1948666666666666	1.2421333333333335	1.1
813.1640086940786	0.17723333333333327	1.2397333333333336	1.1
813.1640086940786	0.1890999999999999	1.2406666666666668	1.1
813.0665391213722	0.19483333333333325	1.3005333333333335	1.1
813.0665892335712	0.18603333333333325	1.2092000000000003	1.1
812.9734882111067	0.1930666666666666	1.1745333333333337	1.1
812.8617499749341	0.18819999999999992	1.1641333333333335	1.1
812.8617499749341	0.18749999999999994	1.2136000000000002	1.1
812.8624483369355	0.19729999999999995	1.2548000000000001	1.1
811.7973293955268	0.18533333333333327	1.1736000000000002	1.1
811.8236142504336	0.18533333333333327	1.1600000000000001	1.1
811.4985150951768	0.18533333333333327	1.1556000000000002	1.1
811.4985150951768	0.1814666666666666	1.1556000000000002	1.1
811.5027465176291	0.17749999999999996	1.1357333333333335	1.1
811.4086691399934	0.18859999999999993	1.161066666666667	1.1
811.3096412383059	0.18519999999999995	1.1977333333333335	1.1
811.3096412383059	0.20663333333333325	1.2900000000000003	1.1
811.3136403454662	0.19606666666666658	1.315466666666667	1.1
811.3136403454662	0.20713333333333325	1.3349333333333335	1.1
811.1116385044525	0.19849999999999995	1.4266666666666667	1.1
810.623861966938	0.20233333333333325	1.3969333333333334	1.1
810.623861966938	0.2108666666666666	1.3246666666666669	1.1
810.6282394172576	0.2108666666666666	1.3556000000000001	1.1
810.2286442519375	0.20049999999999993	1.3030666666666668	1.1
809.9536531403241	0.19859999999999992	1.3030666666666668	1.1
809.5517592088821	0.18209999999999993	1.16	1.1
809.5517592088821	0.1883333333333333	1.1885333333333334	1.1
809.4553209847288	0.1867666666666666	1.16	1.1
809.455836751243	0.1875666666666666	1.1601333333333335	1.1
809.4553019295004	0.1971333333333333	1.2010666666666667	1.1
808.2895342622802	0.18863333333333324	1.2172000000000003	1.1
808.2895342622802	0.19639999999999994	1.3036	1.1
808.2893916370813	0.20073333333333326	1.2642666666666669	1.1
808.1012676417964	0.20073333333333326	1.1906666666666668	1.1
808.1053467379788	0.18933333333333324	1.2430666666666668	1.1
808.1053467379788	0.1910666666666666	1.2430666666666668	1.1
808.0109218713342	0.1957333333333333	1.295866666666667	1.1
807.8052283569139	0.2041999999999999	1.276666666666667	1.1
807.8052621884336	0.20046666666666657	1.2216000000000005	1.1
807.8052621884336	0.1966666666666666	1.243066666666667	1.1
807.8052621884336	0.19449999999999992	1.2324000000000004	1.1
807.7143610134428	0.18109999999999996	1.16	1.1
807.511447488623	0.17749999999999994	1.16	1.1
807.1214487232563	0.18693333333333328	1.1574666666666666	1.1
806.9406952719687	0.19769999999999993	1.2177333333333336	1.1
806.9406952719687	0.19769999999999993	1.1589333333333336	1.1
806.45913139522	0.18433333333333327	1.1325333333333334	1.1
806.0723236370947	0.17939999999999992	1.1325333333333334	1.1
806.0723236370947	0.1822333333333333	1.1662666666666668	1.1
806.0697247341097	0.19183333333333324	1.2198666666666669	1.1
806.0697247341097	0.1946666666666666	1.2122666666666668	1.1
805.7816588154251	0.18999999999999992	1.1608000000000003	1.1
804.9200504444213	0.1847666666666666	1.1534666666666669	1.1
804.8231822355602	0.18993333333333326	1.1124	1.1
804.8231822355602	0.18869999999999992	1.1245333333333334	1.1
804.6281511344614	0.17879999999999996	1.1485333333333336	1.1
804.6244171964701	0.18319999999999992	1.1558666666666668	1.1
804.4389444202468	0.18319999999999992	1.0754666666666666	1.1
804.3455192818382	0.17733333333333326	1.0781333333333336	1.1
804.3455192818382	0.18403333333333327	1.0781333333333336	1.1
804.247555723979	0.18339999999999995	1.1470666666666667	1.1
804.057369592793	0.19559999999999994	1.1354666666666668	1.1
804.1504155544333	0.18373333333333328	1.1437333333333335	1.1
803.4865012983585	0.1875666666666666	1.1597333333333335	1.1
803.4865012983585	0.1877666666666666	1.1637333333333333	1.1
803.3811986105203	0.1843666666666666	1.1602666666666668	1.1
802.9040847166557	0.1800666666666666	1.1498666666666668	1.1
802.7180470906123	0.18723333333333328	1.16	1.1
802.7225357345801	0.20189999999999994	1.2096000000000005	1.1
802.7225357345801	0.20189999999999994	1.1878666666666666	1.1
802.7225357345801	0.1995666666666666	1.0800000000000003	1.1
801.3799405342518	0.1833333333333333	1.0800000000000003	1.1
801.3812778574269	0.1776666666666666	1.0881333333333334	1.1
801.3812778574269	0.17359999999999995	1.0842666666666665	1.1
801.1918076602706	0.17779999999999993	1.1478666666666668	1.1
801.1913004459684	0.1925666666666666	1.1601333333333335	1.1
801.1033921415083	0.1860666666666666	1.1856000000000002	1.1
801.0993099627855	0.18599999999999994	1.0813333333333333	1.1
801.0993099627855	0.18033333333333326	1.0321333333333333	1.1
801.0963939942201	0.16959999999999995	1.0504	1.1
800.9013453228225	0.1740666666666666	1.0584	1.1
800.808045504628	0.1740666666666666	1.1230666666666669	1.1
800.8103494439766	0.1842666666666666	1.1597333333333333	1.1
800.8103494439766	0.19889999999999994	1.1597333333333333	1.1
800.3370046099641	0.17763333333333325	1.1098666666666668	1.1
800.4309780180658	0.1864666666666666	1.0813333333333333	1.1
