wavelength(nm)	flourescence PMT(V)	ti_saph Power (V)	Gain (V)
750.3243793307089	0.4347666666666667	4.141066666666666	1.0
750.3243793307089	0.4347666666666667	4.342933333333334	1.0
750.9899945840455	0.4446666666666666	4.1496	1.0
750.9899945840455	0.4324333333333333	4.1496	1.0
750.9899945840455	0.4393666666666667	4.2208	1.0
750.9899945840455	0.4530666666666666	4.362266666666668	1.0
750.9899945840455	0.4431333333333333	4.309333333333334	1.0
750.9899945840455	0.4486999999999999	4.260666666666666	1.0
751.7409112169178	0.4246666666666666	4.111199999999999	1.0
751.7409112169178	0.4465333333333333	4.283333333333334	1.0
752.1582753682909	0.42039999999999994	3.9841333333333324	1.0
752.1582753682909	0.43033333333333323	4.315733333333334	1.0
752.1582753682909	0.44619999999999993	4.432266666666667	1.0
752.4109876930956	0.44619999999999993	4.311733333333334	1.0
752.4109876930956	0.43946666666666656	4.1112	1.0
752.4109876930956	0.4125999999999999	4.1112	1.0
752.9092795723022	0.41719999999999996	4.112400000000001	1.0
752.9092795723022	0.4232999999999999	4.131466666666667	1.0
753.1635453059087	0.4256999999999999	4.1284	1.0
753.1635453059087	0.4179333333333332	4.12	1.0
753.1635453059087	0.41156666666666664	4.039866666666667	1.0
753.581564705876	0.41426666666666656	4.186	1.0
753.581564705876	0.4171999999999999	4.285733333333333	1.0
753.581564705876	0.41489999999999994	4.255066666666667	1.0
753.9198250745458	0.41489999999999994	4.316266666666667	1.0
753.9198250745458	0.42469999999999997	4.3872	1.0
753.9198250745458	0.4305333333333333	4.3872	1.0
753.9994567231671	0.43329999999999996	4.509600000000001	1.0
753.9994567231671	0.4291	4.3390666666666675	1.0
754.2560042739746	0.4022666666666666	4.023066666666667	1.0
754.2560042739746	0.3970333333333333	3.939066666666666	1.0
754.2560042739746	0.39969999999999994	4.090800000000001	1.0
755.0141840790944	0.4023999999999999	4.100666666666668	1.0
755.0141840790944	0.40829999999999994	4.166933333333333	1.0
755.0141840790944	0.4213666666666666	4.310533333333334	1.0
755.8525262995327	0.39853333333333324	4.175866666666668	1.0
755.8525262995327	0.39853333333333324	3.9741333333333326	1.0
756.1108493169884	0.39103333333333323	3.978266666666667	1.0
756.1108493169884	0.39036666666666664	3.978266666666667	1.0
756.1108493169884	0.3905666666666666	4.0633333333333335	1.0
756.1897195106382	0.41519999999999996	4.2948	1.0
756.1897195106382	0.41573333333333323	4.401066666666667	1.0
756.1897195106382	0.4059999999999999	4.1684	1.0
756.5315960813698	0.3981333333333333	4.1240000000000006	1.0
756.5315960813698	0.4007333333333333	4.0952	1.0
756.7877989862734	0.3826333333333333	3.956533333333333	1.0
756.7877989862734	0.38489999999999996	3.9748	1.0
756.7877989862734	0.39456666666666657	4.2085333333333335	1.0
756.9503130523346	0.39456666666666657	4.230266666666666	1.0
756.9503130523346	0.40783333333333327	4.230266666666666	1.0
756.9503130523346	0.4261333333333333	4.409466666666667	1.0
757.2090850389127	0.3949333333333333	4.1568	1.0
757.2090850389127	0.3829333333333333	4.042266666666667	1.0
757.6322595124358	0.38709999999999994	4.0404	1.0
757.6322595124358	0.37926666666666664	3.9729333333333336	1.0
757.6322595124358	0.3894333333333333	4.1419999999999995	1.0
757.6322595124358	0.39646666666666663	4.398533333333333	1.0
757.6322595124358	0.3944999999999999	4.288799999999999	1.0
757.6322595124358	0.39673333333333327	4.261466666666667	1.0
757.6321805738806	0.39673333333333327	4.276933333333333	1.0
757.6321805738806	0.38939999999999997	4.378	1.0
757.6321805738806	0.39849999999999997	4.378	1.0
757.6321805738806	0.4058999999999999	4.424266666666667	1.0
757.6321805738806	0.41259999999999997	4.481866666666667	1.0
762.0696098229201	0.40846666666666664	4.594533333333334	1.0
762.0696098229201	0.40903333333333325	4.607066666666666	1.0
762.0696098229201	0.4091999999999999	4.625066666666666	1.0
762.1524176113153	0.4064	4.7016	1.0
762.1524176113153	0.4124333333333333	4.666	1.0
762.1518712679868	0.4017333333333333	4.6724	1.0
762.1518712679868	0.39533333333333326	4.5404	1.0
762.1518712679868	0.39533333333333326	4.521733333333334	1.0
762.1534491142028	0.38683333333333325	4.523333333333333	1.0
762.1534491142028	0.3917999999999999	4.523333333333333	1.0
762.1534491142028	0.39666666666666656	4.530133333333334	1.0
762.415735116301	0.37209999999999993	4.257733333333333	1.0
762.415735116301	0.3701666666666666	4.266933333333333	1.0
762.8417671196913	0.39423333333333327	4.5384	1.0
762.8417671196913	0.4127999999999999	4.62	1.0
762.8417671196913	0.3983999999999999	4.6037333333333335	1.0
762.8417302359793	0.4023666666666666	4.727333333333333	1.0
762.8417302359793	0.41279999999999994	4.869866666666666	1.0
762.8417302359793	0.4275999999999999	4.9976	1.0
763.9592045275384	0.4275999999999999	5.0072	1.0
763.9592045275384	0.4214333333333333	5.012266666666667	1.0
764.0452011791509	0.42883333333333323	5.012266666666667	1.0
764.0452011791509	0.42219999999999996	5.029066666666666	1.0
764.0452011791509	0.4239666666666666	4.9610666666666665	1.0
764.3892212214846	0.3920333333333333	4.5141333333333336	1.0
764.3892212214846	0.36163333333333325	4.196400000000001	1.0
764.3892212214846	0.3658666666666666	4.191466666666667	1.0
764.9059880952731	0.39903333333333324	4.7892	1.0
764.9059880952731	0.43106666666666665	5.062666666666667	1.0
764.9051954092515	0.4345666666666666	5.150133333333333	1.0
764.9051954092515	0.4239666666666666	5.077333333333335	1.0
764.9051954092515	0.4239666666666666	4.8484	1.0
765.518701843919	0.4080999999999999	4.599200000000001	1.0
765.518701843919	0.39856666666666657	4.599200000000001	1.0
765.518701843919	0.39133333333333326	4.594399999999999	1.0
765.5186183491959	0.40586666666666665	4.687466666666667	1.0
765.5186183491959	0.3881666666666666	4.669733333333333	1.0
765.9470706691536	0.39546666666666663	4.752000000000001	1.0
765.9470706691536	0.4167333333333333	4.9364	1.0
765.9470706691536	0.4197999999999999	5.046666666666667	1.0
765.9472373431491	0.4169666666666666	5.0684	1.0
765.9472373431491	0.41343333333333326	4.981866666666667	1.0
765.9472373431491	0.4098666666666666	4.813466666666667	1.0
767.0754497900492	0.4098666666666666	5.1428	1.0
767.0754497900492	0.4197333333333333	5.1428	1.0
767.0754133534506	0.45423333333333327	5.536666666666666	1.0
767.0754133534506	0.45609999999999995	5.56	1.0
767.0754133534506	0.4502333333333333	5.558133333333333	1.0
767.5108368232931	0.4498999999999999	5.483733333333333	1.0
767.5108368232931	0.4342666666666666	5.3427999999999995	1.0
767.5108368232931	0.43873333333333325	5.4905333333333335	1.0
767.5108368232931	0.4455333333333332	5.468266666666667	1.0
767.5108368232931	0.43439999999999995	5.368666666666666	1.0
767.7778117831717	0.41503333333333325	5.2064	1.0
767.7778117831717	0.41503333333333325	4.644266666666668	1.0
767.7778117831717	0.3780333333333333	4.7889333333333335	1.0
768.2931161595445	0.40126666666666655	4.7889333333333335	1.0
768.2931161595445	0.3958666666666666	4.958666666666667	1.0
768.2931161595445	0.4074666666666666	4.9976	1.0
768.5583321363899	0.40556666666666663	4.912533333333332	1.0
768.5583321363899	0.38933333333333325	4.857866666666667	1.0
768.5583321363899	0.40313333333333323	5.000533333333333	1.0
768.5583321363899	0.4017666666666666	4.920933333333333	1.0
768.5583321363899	0.39146666666666663	5.0805333333333325	1.0
768.9967880602937	0.41086666666666666	5.140133333333333	1.0
768.9967880602937	0.4047666666666666	4.973066666666667	1.0
768.9967880602937	0.4047666666666666	4.947733333333333	1.0
769.0785148571556	0.3969666666666666	4.944533333333334	1.0
769.0785148571556	0.39296666666666663	4.944533333333334	1.0
770.1347750257893	0.37146666666666656	4.5804	1.0
770.1347750257893	0.41413333333333324	5.2388	1.0
770.1347750257893	0.4404	5.6390666666666664	1.0
770.2178631030973	0.4352333333333332	5.6016	1.0
770.2178631030973	0.42879999999999996	5.333733333333333	1.0
770.2178631030973	0.4092666666666666	5.239199999999999	1.0
770.571108975878	0.4058666666666666	5.179733333333334	1.0
770.571108975878	0.4143666666666666	5.3064	1.0
770.9221685173056	0.4143666666666666	5.3322666666666665	1.0
770.9221685173056	0.4150666666666666	5.0196000000000005	1.0
770.9221685173056	0.3969666666666666	5.0196000000000005	1.0
771.7136064325434	0.3974	5.1706666666666665	1.0
771.7136064325434	0.39473333333333327	5.004133333333334	1.0
771.7136064325434	0.3728666666666666	4.7524	1.0
771.9831783564387	0.3602999999999999	4.732933333333333	1.0
771.9831783564387	0.3890333333333333	4.8777333333333335	1.0
772.0655925943331	0.4094999999999999	5.395866666666666	1.0
772.0655925943331	0.4194666666666666	5.400133333333333	1.0
772.0655925943331	0.4109333333333333	5.247733333333333	1.0
772.1514878436016	0.3946333333333333	5.185733333333332	1.0
772.1514878436016	0.3946333333333333	5.023466666666667	1.0
772.1514878436016	0.38086666666666663	5.023466666666667	1.0
773.2166275386461	0.4075999999999999	5.120933333333334	1.0
773.2166275386461	0.41393333333333326	5.4284	1.0
773.5699846575774	0.4003333333333333	5.263866666666666	1.0
773.5699846575774	0.37629999999999997	4.9048	1.0
773.5699846575774	0.3941333333333333	5.1032	1.0
774.0106792532612	0.4305333333333332	5.5968	1.0
774.0106792532612	0.40126666666666655	5.297999999999999	1.0
774.0106792532612	0.4004666666666666	5.297066666666666	1.0
774.3690301250219	0.4029999999999999	5.299600000000001	1.0
774.3690301250219	0.4029999999999999	5.243733333333333	1.0
774.7207775206131	0.40529999999999994	5.207333333333334	1.0
774.7207775206131	0.39963333333333323	5.207333333333334	1.0
774.7207775206131	0.4009666666666666	5.1552	1.0
775.0793575258886	0.3778999999999999	4.964933333333334	1.0
775.0793575258886	0.36799999999999994	4.857333333333333	1.0
775.0793575258886	0.41973333333333324	5.4417333333333335	1.0
775.1660374866512	0.4310333333333333	5.785466666666667	1.0
775.1660374866512	0.4273333333333333	5.598	1.0
775.2524546893354	0.4050999999999999	5.293866666666666	1.0
775.2524546893354	0.4169666666666666	5.24	1.0
775.2524546893354	0.4081666666666666	5.366133333333333	1.0
775.4375799629629	0.4081666666666666	5.383866666666666	1.0
775.4375799629629	0.3932666666666666	5.083066666666667	1.0
775.4375799629629	0.3765666666666666	5.083066666666667	1.0
776.3219877569176	0.42016666666666663	5.4673333333333325	1.0
776.3219877569176	0.4331333333333332	5.801333333333334	1.0
776.7652983323509	0.42903333333333327	5.700666666666666	1.0
776.7652983323509	0.39959999999999996	5.196	1.0
776.7652983323509	0.3875333333333333	5.043200000000001	1.0
777.0385568169304	0.3996333333333333	5.2128000000000005	1.0
777.0385568169304	0.44849999999999995	5.861866666666667	1.0
777.0385568169304	0.4273333333333333	5.758266666666666	1.0
777.48659005269	0.4276333333333333	5.532933333333333	1.0
777.48659005269	0.4276333333333333	5.518	1.0
777.8438727917659	0.4230333333333332	5.505199999999999	1.0
777.8438727917659	0.4285999999999999	5.505199999999999	1.0
777.8438727917659	0.4183333333333332	5.3355999999999995	1.0
778.2894577158343	0.41109999999999997	5.4848	1.0
778.2894577158343	0.4405333333333332	5.706133333333334	1.0
778.2894577158343	0.45359999999999995	5.8656	1.0
778.3749947131679	0.4418333333333332	5.790666666666667	1.0
778.3749947131679	0.43879999999999997	5.7467999999999995	1.0
778.5601812324435	0.43163333333333326	5.881733333333332	1.0
778.5601812324435	0.4211666666666666	5.597600000000001	1.0
778.5601812324435	0.4211666666666666	5.2504	1.0
778.5601812324435	0.41219999999999996	5.727866666666666	1.0
778.5601812324435	0.43396666666666667	5.727866666666666	1.0
778.5601812324435	0.4443	5.806533333333333	1.0
779.8151119068282	0.42163333333333325	5.346266666666666	1.0
779.8151119068282	0.4253666666666666	5.517333333333333	1.0
780.6270928658146	0.49379999999999996	6.253466666666666	1.0
780.6270928658146	0.4729333333333333	6.039733333333333	1.0
780.6270928658146	0.47536666666666655	6.047066666666666	1.0
780.9867541907282	0.4376999999999999	5.644533333333333	1.0
780.9867541907282	0.44086666666666663	5.5287999999999995	1.0
780.9867541907282	0.45649999999999996	5.8351999999999995	1.0
781.4376200388696	0.45649999999999996	5.982266666666666	1.0
781.4376200388696	0.4677666666666665	5.933999999999999	1.0
781.4408028287723	0.46343333333333325	5.933999999999999	1.0
781.4408028287723	0.4568333333333332	5.8312	1.0
781.4408028287723	0.44663333333333327	5.821466666666667	1.0
781.7113373340621	0.4492	5.807866666666667	1.0
781.7113373340621	0.4500666666666666	5.818133333333334	1.0
781.7113373340621	0.44873333333333326	5.673466666666666	1.0
782.8871931261269	0.4380333333333332	5.4807999999999995	1.0
782.8871931261269	0.4765	5.9364	1.0
782.8871785522329	0.4974333333333332	6.177199999999999	1.0
782.8871785522329	0.49636666666666657	6.262133333333333	1.0
782.8871785522329	0.49636666666666657	6.010933333333333	1.0
783.3421361659059	0.47553333333333325	6.010933333333333	1.0
783.3421361659059	0.5116333333333333	6.463066666666667	1.0
783.3421361659059	0.5205333333333332	6.5186666666666655	1.0
783.7027492460347	0.5109666666666666	6.485466666666667	1.0
783.7027492460347	0.4571333333333333	5.601333333333333	1.0
784.1561742671778	0.4771666666666666	5.846	1.0
784.1561742671778	0.48129999999999995	5.714666666666667	1.0
784.1561742671778	0.4621	5.524266666666667	1.0
784.5233637991537	0.48103333333333326	5.733333333333333	1.0
784.5233637991537	0.5146999999999999	6.358666666666668	1.0
784.5233637991537	0.5146999999999999	6.533333333333333	1.0
784.5229227923863	0.5387666666666666	6.329733333333333	1.0
784.5229227923863	0.5154666666666666	6.329733333333333	1.0
784.8884271602857	0.5149333333333332	6.217866666666667	1.0
784.8884271602857	0.49873333333333325	6.007733333333334	1.0
784.8884271602857	0.4867333333333333	5.807466666666667	1.0
784.9788575838198	0.49153333333333327	5.7616000000000005	1.0
784.9788575838198	0.4634666666666665	5.698	1.0
784.9788575838198	0.4723	5.583466666666666	1.0
786.0773224711693	0.5365	6.205866666666666	1.0
786.0773224711693	0.5298999999999999	6.1992	1.0
786.0773224711693	0.5298999999999999	6.042133333333334	1.0
786.1635504461733	0.49886666666666657	5.585466666666665	1.0
786.1635504461733	0.4897999999999999	5.585466666666665	1.0
786.4424517497457	0.48919999999999997	5.647066666666666	1.0
786.4424517497457	0.5055999999999999	5.789466666666667	1.0
786.4424517497457	0.5504333333333333	6.012533333333333	1.0
786.4424517497457	0.5569999999999999	6.140133333333333	1.0
786.4424517497457	0.5184666666666665	5.637199999999999	1.0
786.4424517497457	0.5218333333333331	5.595466666666666	1.0
787.7230123287062	0.5819666666666666	6.285066666666666	1.0
787.7230123287062	0.6063333333333333	6.5628	1.0
787.7238301408494	0.6103	6.552133333333333	1.0
787.7238301408494	0.6103	6.202800000000001	1.0
787.7238301408494	0.5811	6.202800000000001	1.0
788.0912642206544	0.5701666666666666	6.060533333333333	1.0
788.0912642206544	0.5474666666666667	5.842933333333333	1.0
788.0912642206544	0.5377333333333332	5.713466666666666	1.0
788.0906527934026	0.5494666666666665	5.647066666666666	1.0
788.0906527934026	0.5551999999999998	5.746133333333334	1.0
789.2894076619165	0.5627333333333332	5.7518666666666665	1.0
789.2894076619165	0.6249333333333332	6.027200000000001	1.0
789.2894076619165	0.6271999999999999	6.0196000000000005	1.0
789.6584484738532	0.6601	6.168	1.0
789.6584484738532	0.6601	6.651199999999999	1.0
789.6584484738532	0.7146333333333333	6.651199999999999	1.0
789.6583671310223	0.7562666666666666	6.830133333333333	1.0
789.6583671310223	0.8097333333333333	6.537066666666667	1.0
788.0015551549212	0.5548333333333333	6.105200000000001	1.0
788.0015551549212	0.5806333333333333	6.105200000000001	1.0
788.0015551549212	0.5736999999999999	6.1109333333333336	1.0
787.6326267039868	0.5783666666666666	6.157333333333334	1.0
787.6326267039868	0.5514666666666665	5.9552	1.0
787.6332610702038	0.5224999999999999	5.587999999999999	1.0
787.6332610702038	0.5035999999999999	5.484133333333334	1.0
787.6332610702038	0.5219999999999999	5.650666666666666	1.0
786.9852098786884	0.5189333333333332	5.623066666666666	1.0
786.9852098786884	0.48686666666666667	5.434133333333333	1.0
786.9852098786884	0.47896666666666665	5.403733333333333	1.0
786.4434535349047	0.47896666666666665	5.3974666666666655	1.0
786.4434535349047	0.47913333333333324	6.003866666666666	1.0
786.0773514259946	0.5218333333333333	6.003866666666666	1.0
786.0773514259946	0.5517333333333333	6.463866666666667	1.0
786.0773514259946	0.5594666666666666	6.442933333333334	1.0
784.9785395284508	0.4849666666666667	5.867733333333334	1.0
784.9785395284508	0.47359999999999985	5.718800000000001	1.0
784.9785395284508	0.49423333333333325	5.8304	1.0
784.8886506630878	0.4998333333333333	5.933466666666667	1.0
784.8886506630878	0.5053	6.0712	1.0
784.612427785147	0.5281999999999999	6.416800000000001	1.0
784.612427785147	0.5255333333333332	6.309333333333334	1.0
784.612427785147	0.5255333333333332	6.005466666666667	1.0
784.5227137506522	0.49123333333333313	5.8970666666666665	1.0
784.5227137506522	0.5026666666666666	5.8970666666666665	1.0
784.5227137506522	0.4775	5.730800000000001	1.0
784.0689170284944	0.48469999999999996	5.632266666666666	1.0
784.0689170284944	0.49023333333333324	6.027200000000001	1.0
783.3387655244697	0.4910999999999999	6.0888	1.0
783.3387655244697	0.4670666666666666	5.8221333333333325	1.0
783.3387655244697	0.5000666666666667	6.2296000000000005	1.0
782.9755754665194	0.5219666666666666	6.533600000000001	1.0
782.9755754665194	0.45349999999999985	5.567733333333332	1.0
782.9755754665194	0.45349999999999985	5.576399999999999	1.0
782.8873527767649	0.4435333333333332	6.068933333333333	1.0
782.8873527767649	0.49179999999999996	6.068933333333333	1.0
781.7122479829214	0.4397666666666666	5.579333333333333	1.0
781.7122479829214	0.45869999999999994	5.777733333333334	1.0
781.7122479829214	0.4716333333333333	6.0410666666666675	1.0
781.5245287834034	0.4777666666666666	6.039066666666667	1.0
781.5245287834034	0.4642333333333333	5.880133333333333	1.0
781.5245287834034	0.45616666666666655	5.863199999999999	1.0
781.3494652030657	0.4558999999999999	6.0036	1.0
781.3494652030657	0.4448999999999999	5.523866666666666	1.0
781.3522031036132	0.42179999999999995	5.304666666666667	1.0
781.3522031036132	0.42179999999999995	5.2508	1.0
781.3522031036132	0.41103333333333325	5.697066666666666	1.0
780.9857175637695	0.4386999999999999	5.697066666666666	1.0
780.9857175637695	0.46756666666666663	5.967733333333333	1.0
780.9857175637695	0.4369999999999999	5.609733333333334	1.0
780.2636902528792	0.44203333333333317	5.6872	1.0
780.2636902528792	0.4497666666666665	5.667733333333333	1.0
780.2636902528792	0.43386666666666657	5.534666666666666	1.0
780.2636902528792	0.42476666666666657	5.569066666666666	1.0
780.2636902528792	0.4554999999999999	5.885466666666666	1.0
780.2636902528792	0.4738333333333333	6.169733333333332	1.0
780.2636902528792	0.4207333333333333	5.501866666666666	1.0
780.2636902528792	0.4207333333333333	5.557066666666667	1.0
778.6461154040309	0.42433333333333323	5.852666666666667	1.0
778.6461154040309	0.45059999999999995	5.852666666666667	1.0
778.289015326711	0.4572333333333332	5.932666666666667	1.0
778.289015326711	0.4501666666666665	5.847066666666667	1.0
778.289015326711	0.45373333333333327	5.908933333333332	1.0
778.1998723060361	0.4546	5.915199999999999	1.0
778.1998723060361	0.4097333333333333	5.494933333333333	1.0
778.1998723060361	0.42833333333333334	5.600933333333333	1.0
777.8833678105937	0.4369333333333333	5.732133333333333	1.0
777.8833678105937	0.4172666666666666	5.4784	1.0
777.1249750913236	0.4172666666666666	5.3428	1.0
777.1249750913236	0.3986333333333333	5.5176	1.0
777.1249750913236	0.42319999999999997	5.5176	1.0
776.7676654020014	0.41846666666666665	5.3728	1.0
776.7676654020014	0.40546666666666664	5.276533333333333	1.0
776.7676654020014	0.43289999999999984	5.613333333333332	1.0
776.6806341867305	0.4225999999999999	5.72	1.0
776.6806341867305	0.4293666666666667	5.645733333333333	1.0
775.5212699145964	0.3831333333333332	5.108266666666666	1.0
775.5212699145964	0.4083333333333332	5.4908	1.0
775.5212699145964	0.4265999999999999	5.703866666666666	1.0
775.2507444103096	0.4557333333333332	5.929066666666666	1.0
775.2507444103096	0.4557333333333332	5.804533333333333	1.0
775.2507444103096	0.42653333333333326	5.804533333333333	1.0
775.1638887866559	0.4123666666666666	5.434266666666666	1.0
775.1638887866559	0.4037333333333333	5.276133333333334	1.0
775.1638887866559	0.3883999999999999	5.009466666666667	1.0
775.1638887866559	0.4012666666666666	5.298933333333332	1.0
775.1638887866559	0.42623333333333324	5.522399999999999	1.0
774.3710967023044	0.4364333333333333	5.711733333333334	1.0
774.3710967023044	0.4043999999999999	5.233600000000001	1.0
774.3710967023044	0.39159999999999995	5.221466666666667	1.0
774.0115612784186	0.4008666666666666	5.0916	1.0
774.0115612784186	0.4008666666666666	5.2096	1.0
774.0115612784186	0.40356666666666663	5.112533333333333	1.0
773.5726403230741	0.3872333333333333	5.112533333333333	1.0
773.5726403230741	0.3968999999999999	5.317333333333333	1.0
773.2165441173175	0.4178333333333333	5.2787999999999995	1.0
773.2165441173175	0.38389999999999996	4.9876	1.0
773.2165441173175	0.41053333333333325	5.241066666666666	1.0
772.1516581497112	0.42053333333333326	5.4577333333333335	1.0
772.1516581497112	0.40269999999999995	5.375333333333333	1.0
772.1516581497112	0.38586666666666664	4.954533333333333	1.0
772.0679128834098	0.3672333333333333	4.759733333333333	1.0
772.0679128834098	0.37589999999999996	4.797733333333334	1.0
771.7126503636964	0.37589999999999996	5.279333333333333	1.0
771.7126503636964	0.4115666666666666	5.3492	1.0
771.7126503636964	0.415	5.3492	1.0
771.2749463512281	0.3680666666666666	4.735733333333332	1.0
771.2749463512281	0.39319999999999994	4.990266666666667	1.0
771.2749463512281	0.39793333333333325	5.124933333333334	1.0
770.8382938692213	0.38386666666666663	4.75	1.0
770.8382938692213	0.38139999999999996	4.906533333333334	1.0
770.133814356167	0.40653333333333325	5.110533333333333	1.0
770.133814356167	0.39046666666666663	4.899333333333334	1.0
770.133814356167	0.3909666666666666	4.884266666666667	1.0
769.4307784712652	0.3909666666666666	4.8427999999999995	1.0
769.4307784712652	0.3979999999999999	5.193733333333333	1.0
769.4307784712652	0.4039666666666666	5.193733333333333	1.0
769.0822218363846	0.44343333333333323	5.602266666666666	1.0
769.0822218363846	0.44639999999999996	5.708	1.0
768.9942420516282	0.4418333333333332	5.585999999999999	1.0
768.9942420516282	0.3789333333333333	4.756	1.0
768.9942420516282	0.3762666666666666	4.7161333333333335	1.0
768.6427575772108	0.4276333333333332	5.233733333333333	1.0
768.6427575772108	0.4299333333333333	5.382133333333333	1.0
768.6427575772108	0.4176333333333333	5.117333333333333	1.0
768.2952757255638	0.37026666666666663	4.604	1.0
768.2952757255638	0.37026666666666663	5.024933333333333	1.0
767.944194330294	0.4135666666666666	5.254666666666666	1.0
767.944194330294	0.42503333333333326	5.254666666666666	1.0
767.944194330294	0.40169999999999995	4.8740000000000006	1.0
767.5115874102216	0.3979333333333333	4.885866666666667	1.0
767.5115874102216	0.4072	4.911733333333333	1.0
767.5115874102216	0.39546666666666663	4.8084	1.0
767.0787007544135	0.38463333333333327	4.684133333333334	1.0
767.0787007544135	0.3852333333333333	4.7492	1.0
767.0764373955959	0.38686666666666664	4.684533333333333	1.0
767.0764373955959	0.3742999999999999	4.6376	1.0
767.0764373955959	0.4079333333333333	5.030800000000001	1.0
766.0686589736815	0.4079333333333333	5.0116000000000005	1.0
766.0686589736815	0.41626666666666656	4.607333333333333	1.0
766.0686589736815	0.38589999999999997	4.607333333333333	1.0
765.949067972565	0.3772666666666666	4.52	1.0
765.949067972565	0.3605999999999999	4.4362666666666675	1.0
765.949067972565	0.3623333333333333	4.4048	1.0
765.949067972565	0.3609333333333333	4.2832	1.0
765.949067972565	0.40556666666666663	4.724	1.0
765.5116606633406	0.4348999999999999	5.115333333333334	1.0
765.5116606633406	0.38949999999999996	4.677066666666667	1.0
765.5116606633406	0.41616666666666663	4.928533333333333	1.0
764.9079047544816	0.3995333333333333	4.794666666666667	1.0
764.9079047544816	0.3995333333333333	4.888133333333333	1.0
764.9051576675904	0.4209333333333332	4.9475999999999996	1.0
764.9051576675904	0.4226999999999999	4.9475999999999996	1.0
764.9051576675904	0.41306666666666664	4.883866666666666	1.0
764.3917050683353	0.41346666666666665	4.842933333333334	1.0
764.3917050683353	0.4124666666666666	4.7684	1.0
764.3917050683353	0.40613333333333324	4.763466666666667	1.0
764.0459750019437	0.3913	4.5376	1.0
764.0459750019437	0.3882333333333332	4.448533333333334	1.0
764.0459750019437	0.37963333333333327	4.456666666666667	1.0
764.0459750019437	0.37773333333333325	4.4412	1.0
764.0459750019437	0.38133333333333325	4.383066666666668	1.0
764.0459750019437	0.38133333333333325	4.4468000000000005	1.0
764.0459750019437	0.3795333333333333	4.4468000000000005	1.0
764.0459750019437	0.3747333333333333	4.268933333333334	1.0
762.8416869197943	0.3627666666666666	4.130933333333334	1.0
762.8416869197943	0.35339999999999994	3.951333333333334	1.0
762.8425318787964	0.34966666666666657	3.8804	1.0
762.8425318787964	0.3676	4.201466666666667	1.0
762.8425318787964	0.3550666666666666	4.0376	1.0
762.1533461147412	0.3680999999999999	4.170533333333333	1.0
762.1533461147412	0.3651666666666666	4.029466666666667	1.0
762.1533461147412	0.36526666666666663	3.945333333333333	1.0
762.1510095431612	0.36526666666666663	4.0578666666666665	1.0
762.1510095431612	0.3689333333333333	4.354933333333333	1.0
762.0717574466303	0.3829666666666666	4.354933333333333	1.0
762.0717574466303	0.3883999999999999	4.418800000000001	1.0
762.0717574466303	0.3931666666666666	4.383333333333335	1.0
762.0702608547538	0.40116666666666667	4.393200000000001	1.0
762.0702608547538	0.38949999999999996	4.355200000000001	1.0
762.0702608547538	0.3978666666666666	4.3322666666666665	1.0
762.0670483573132	0.3968666666666666	4.3584000000000005	1.0
762.0670483573132	0.4032666666666666	4.4614666666666665	1.0
758.3139378887604	0.41143333333333326	4.5112000000000005	1.0
758.3139378887604	0.40296666666666664	4.370933333333334	1.0
758.3139378887604	0.40296666666666664	4.0464	1.0
757.5484703364177	0.3796666666666666	4.0464	1.0
757.5484703364177	0.3832333333333333	4.052266666666668	1.0
757.5484703364177	0.39199999999999996	4.1858666666666675	1.0
757.2096718938451	0.4030333333333333	4.254533333333334	1.0
757.2096718938451	0.41979999999999995	4.5043999999999995	1.0
757.2103617138857	0.4067333333333333	4.519466666666665	1.0
757.2103617138857	0.40666666666666657	4.503866666666667	1.0
757.2103617138857	0.4227999999999999	4.499466666666667	1.0
756.952583878806	0.44663333333333316	4.738933333333333	1.0
756.952583878806	0.4039666666666666	4.255733333333334	1.0
756.952583878806	0.4039666666666666	3.9958666666666667	1.0
756.612623522995	0.38643333333333324	4.209466666666668	1.0
756.612623522995	0.40403333333333324	4.209466666666668	1.0
756.1910821343167	0.4201999999999999	4.482266666666667	1.0
756.1910821343167	0.3998999999999999	4.286266666666667	1.0
756.1910821343167	0.3873999999999999	3.9361333333333333	1.0
756.1094421201673	0.38323333333333326	4.000266666666667	1.0
756.1094421201673	0.40483333333333327	4.1542666666666666	1.0
756.1094421201673	0.41629999999999995	4.24	1.0
755.4667579047285	0.40479999999999994	4.247466666666666	1.0
755.4667579047285	0.42326666666666657	4.311066666666667	1.0
755.4667579047285	0.41823333333333323	4.397333333333334	1.0
755.0124794347091	0.41823333333333323	4.069733333333334	1.0
755.0124794347091	0.39696666666666663	3.981733333333333	1.0
754.2582328000069	0.39933333333333326	3.981733333333333	1.0
754.2582328000069	0.39546666666666663	4.008666666666667	1.0
754.2582328000069	0.3941333333333333	4.016933333333333	1.0
753.9984293748123	0.4233666666666666	4.325733333333333	1.0
753.9984293748123	0.44939999999999997	4.675466666666667	1.0
753.9984293748123	0.4498666666666666	4.648666666666668	1.0
753.5831931326738	0.4609666666666665	4.6192	1.0
753.5831931326738	0.4446666666666666	4.600133333333333	1.0
753.1651355425423	0.4413666666666666	4.5728	1.0
753.1651355425423	0.4394333333333333	4.378	1.0
753.1651355425423	0.4394333333333333	4.438933333333335	1.0
753.1651355425423	0.4399999999999999	4.438933333333335	1.0
753.1651355425423	0.43629999999999997	4.437333333333334	1.0
753.1651355425423	0.44219999999999987	4.3516	1.0
752.8275739002735	0.4330333333333333	4.293466666666667	1.0
752.8275739002735	0.43403333333333327	4.266533333333333	1.0
752.1602462337253	0.4498666666666666	4.347866666666667	1.0
752.1602462337253	0.43793333333333334	4.354400000000001	1.0
752.1602462337253	0.4070666666666666	4.039466666666667	1.0
751.8220023013786	0.43323333333333325	4.138133333333333	1.0
751.8220023013786	0.4272666666666667	4.335466666666668	1.0
751.8220023013786	0.4479999999999999	4.433466666666667	1.0
751.4060532598154	0.4479999999999999	4.0902666666666665	1.0
751.4060532598154	0.42273333333333324	4.0902666666666665	1.0
751.4060532598154	0.4480666666666666	4.325466666666668	1.0
750.9925432527139	0.43593333333333323	4.338266666666667	1.0
750.9925432527139	0.42336666666666656	4.023733333333333	1.0
750.911320187227	0.4099666666666666	4.018000000000001	1.0
750.911320187227	0.4239333333333333	4.127600000000001	1.0
750.911320187227	0.4301666666666666	4.120266666666667	1.0
750.3212849728698	0.4520999999999999	4.255466666666666	1.0
750.3212849728698	0.4294999999999999	4.016266666666667	1.0
750.3212849728698	0.4220666666666666	3.966266666666667	1.0
750.1273849254222	0.4220666666666666	4.253733333333333	1.0
750.1273849254222	0.44396666666666657	4.203733333333334	1.0
