wavelength(nm)	flourescence PMT(V)	ti_saph Power (V)	Gain (V)
800.3387175420773	0.17609999999999995	1.1436000000000002	1.1
800.3387175420773	0.18129999999999993	1.0838666666666668	1.1
800.813463612414	0.18573333333333328	1.1177333333333335	1.1
800.812804144563	0.20199999999999993	1.1620000000000004	1.1
800.8138940386991	0.20199999999999993	1.1577333333333335	1.1
800.8138940386991	0.18383333333333327	1.1577333333333335	1.1
801.0987904968557	0.1801666666666666	1.1118666666666668	1.1
801.0966436186101	0.17623333333333327	1.0793333333333335	1.1
801.1889761705497	0.17916666666666659	1.0800000000000003	1.1
801.1884778009415	0.17099999999999993	1.0800000000000003	1.1
801.1884778009415	0.18869999999999992	1.16	1.1
801.280592094939	0.18739999999999993	1.2029333333333334	1.1
801.3738745720349	0.1921666666666666	1.1701333333333337	1.1
801.3899868635086	0.19049999999999992	1.0798666666666668	1.1
801.3899868635086	0.18579999999999994	1.0810666666666668	1.1
801.3899868635086	0.18579999999999994	1.1564	1.1
802.7216425211723	0.17383333333333326	1.1672	1.1
802.8114278909344	0.19229999999999994	1.1672	1.1
802.8124592995205	0.19013333333333327	1.2401333333333335	1.1
802.8124592995205	0.18949999999999995	1.2181333333333335	1.1
803.4852485928182	0.1798666666666666	1.1601333333333335	1.1
803.6698189031683	0.17793333333333328	1.158666666666667	1.1
803.7692774758202	0.19886666666666658	1.1493333333333335	1.1
803.7692774758202	0.18553333333333327	1.1626666666666667	1.1
804.1985736951266	0.1828666666666666	1.1565333333333334	1.1
804.1493308571211	0.1830666666666666	1.0829333333333333	1.1
804.3437956996802	0.17469999999999994	1.1257333333333335	1.1
804.3437956996802	0.17469999999999994	1.132666666666667	1.1
804.3437956996802	0.1875666666666666	1.1126666666666667	1.1
804.4364732371449	0.17839999999999995	1.1126666666666667	1.1
804.6288199954455	0.17919999999999994	1.0765333333333336	1.1
804.6302111824112	0.18673333333333328	1.1442666666666668	1.1
804.6302111824112	0.1804999999999999	1.151066666666667	1.1
804.6305706971781	0.18839999999999993	1.1309333333333333	1.1
804.7199874630296	0.1886666666666666	1.1490666666666667	1.1
804.8260387531355	0.19739999999999994	1.1924000000000001	1.1
806.1390505811426	0.1916666666666666	1.1645333333333334	1.1
806.1390505811426	0.1996666666666666	1.16	1.1
805.9824240109007	0.1949666666666666	1.1629333333333336	1.1
806.0755335138626	0.1949666666666666	1.2160000000000002	1.1
806.2629792953678	0.18919999999999992	1.1848	1.1
806.2629792953678	0.19939999999999994	1.1848	1.1
806.2629792953678	0.18173333333333327	1.1876000000000002	1.1
807.035225984941	0.1837666666666666	1.16	1.1
807.4210329614643	0.1976999999999999	1.2282666666666668	1.1
807.4210370906917	0.18679999999999994	1.16	1.1
807.4210370906917	0.18503333333333324	1.1573333333333335	1.1
807.7161260295035	0.18499999999999994	1.1488	1.1
807.9015562697442	0.19183333333333324	1.16	1.1
807.8115878012644	0.19163333333333327	1.2394666666666667	1.1
807.8115878012644	0.19163333333333327	1.2856000000000003	1.1
807.8993976405699	0.2014666666666666	1.2410666666666668	1.1
807.9017014730867	0.18913333333333326	1.2410666666666668	1.1
808.1035170661091	0.19169999999999993	1.1620000000000001	1.1
808.1035170661091	0.18766666666666662	1.1665333333333334	1.1
808.2371575307797	0.19423333333333329	1.2405333333333337	1.1
808.1976084679316	0.20383333333333326	1.2188000000000003	1.1
808.1976084679316	0.19016666666666662	1.1598666666666668	1.1
809.4577485484632	0.17949999999999994	1.1588	1.1
809.4577485484632	0.18753333333333327	1.2132	1.1
809.456466076652	0.19293333333333326	1.2417333333333336	1.1
809.4599980608533	0.1797666666666666	1.2721333333333336	1.1
809.3610008192145	0.1797666666666666	1.2004	1.1
809.3610008192145	0.18556666666666663	1.185466666666667	1.1
809.548983118358	0.18699999999999994	1.185466666666667	1.1
809.9426882541654	0.18329999999999994	1.1602666666666668	1.1
810.2345850442363	0.17923333333333327	1.1601333333333335	1.1
810.6252272101558	0.19419999999999993	1.16	1.1
810.6252272101558	0.20219999999999994	1.3398666666666668	1.1
810.6252346219231	0.19549999999999992	1.3417333333333334	1.1
810.6252346219231	0.2037666666666666	1.3444000000000003	1.1
811.108436810876	0.1933999999999999	1.3857333333333335	1.1
811.108436810876	0.19606666666666658	1.3996	1.1
811.1095848038709	0.2065666666666666	1.3648000000000002	1.1
811.4077994335653	0.2065666666666666	1.3249333333333335	1.1
811.5018345522911	0.2061666666666666	1.2680000000000002	1.1
811.5018345522911	0.1863666666666666	1.2680000000000002	1.1
811.5018345522911	0.18343333333333325	1.1714666666666669	1.1
811.5040047214268	0.19229999999999994	1.1694666666666669	1.1
811.5052773028323	0.18729999999999994	1.1596	1.1
811.7963121611583	0.19016666666666662	1.1592000000000002	1.1
811.7963121611583	0.18613333333333326	1.1556000000000002	1.1
812.6732333390974	0.18269999999999992	1.1937333333333335	1.1
812.6753834989298	0.19913333333333327	1.3668000000000002	1.1
813.0709092273236	0.1948666666666666	1.2977333333333334	1.1
813.1631103740813	0.2001666666666666	1.301866666666667	1.1
813.1631103740813	0.2001666666666666	1.2596000000000003	1.1
813.1631103740813	0.19233333333333327	1.2596000000000003	1.1
814.0454214623223	0.2016666666666666	1.3201333333333336	1.1
814.0424789038544	0.18979999999999994	1.3049333333333337	1.1
814.0424789038544	0.18853333333333325	1.2425333333333335	1.1
814.5321618182122	0.19299999999999992	1.3181333333333336	1.1
814.5326732206837	0.2115666666666666	1.3750666666666669	1.1
814.7408073496478	0.2029666666666666	1.3868000000000003	1.1
814.7399230941177	0.19523333333333326	1.3988	1.1
814.7399230941177	0.20173333333333326	1.4004	1.1
814.738785311357	0.1949666666666666	1.4	1.1
815.1357547766577	0.1949666666666666	1.2817333333333336	1.1
815.1356469280573	0.1896333333333333	1.1584	1.1
815.1356469280573	0.17083333333333328	1.1584	1.1
815.3254012907659	0.18709999999999993	1.1689333333333336	1.1
815.3296221901013	0.20773333333333327	1.3037333333333336	1.1
816.2077895767907	0.18243333333333328	1.2185333333333335	1.1
816.2114034937784	0.17483333333333329	1.16	1.1
816.2114034937784	0.17523333333333327	1.16	1.1
816.9076510183858	0.1798666666666666	1.3181333333333336	1.1
817.3034830840631	0.18346666666666658	1.3049333333333337	1.1
817.5059203891944	0.18389999999999992	1.3176000000000003	1.1
817.5059203891944	0.16776666666666662	1.1785333333333334	1.1
817.4930712913006	0.16776666666666662	1.1645333333333334	1.1
817.7965073869314	0.16949999999999993	1.16	1.1
817.7965073869314	0.17219999999999994	1.16	1.1
817.7965073869314	0.17689999999999992	1.2173333333333334	1.1
817.7965073869314	0.17796666666666663	1.2396000000000003	1.1
818.2937531466404	0.1807666666666666	1.1628	1.1
818.2897172511599	0.17443333333333327	1.1602666666666668	1.1
818.5952238737631	0.17589999999999995	1.1617333333333335	1.1
818.5952238737631	0.17469999999999994	1.1884000000000001	1.1
818.5927304346236	0.18156666666666663	1.16	1.1
818.5963674615359	0.1786666666666666	1.16	1.1
818.596358353689	0.17256666666666662	1.16	1.1
819.3884127138627	0.17256666666666662	1.1808	1.1
819.3884127138627	0.1716666666666666	1.3188000000000004	1.1
819.790020226396	0.18303333333333327	1.3188000000000004	1.1
819.791709380712	0.1701666666666666	1.3618666666666668	1.1
820.4914643679618	0.1822666666666666	1.3272000000000004	1.1
820.4914643679618	0.1712666666666666	1.3141333333333338	1.1
820.4908464481796	0.18346666666666658	1.3865333333333336	1.1
820.5856924886305	0.17459999999999995	1.3136000000000003	1.1
820.990672552933	0.17883333333333326	1.2553333333333336	1.1
821.0856766366747	0.17259999999999995	1.3209333333333335	1.1
821.0856766366747	0.18213333333333329	1.3965333333333334	1.1
821.0856766366747	0.1748666666666666	1.3596000000000004	1.1
821.5824043763847	0.1748666666666666	1.358266666666667	1.1
821.5824043763847	0.17663333333333328	1.3345333333333333	1.1
821.5824043763847	0.17313333333333328	1.3345333333333333	1.1
821.889033284879	0.17993333333333328	1.3889333333333336	1.1
821.8853296141409	0.17349999999999993	1.4005333333333332	1.1
822.1941861693585	0.17283333333333326	1.4014666666666666	1.1
822.1941935876414	0.17983333333333326	1.3617333333333337	1.1
822.1941935876414	0.17619999999999994	1.317466666666667	1.1
822.1941212200093	0.1787666666666666	1.3186666666666669	1.1
822.4880415755272	0.1697666666666666	1.2525333333333335	1.1
823.490569088678	0.16163333333333327	1.3029333333333337	1.1
823.490569088678	0.17739999999999992	1.455733333333333	1.1
823.5007941795816	0.17739999999999992	1.4449333333333332	1.1
823.9988490533703	0.16976666666666662	1.3746666666666667	1.1
823.9966626258673	0.17179999999999992	1.3746666666666667	1.1
824.0961053484951	0.1718666666666666	1.3965333333333334	1.1
824.0961053484951	0.1793333333333333	1.448	1.1
824.4028098538056	0.17463333333333328	1.3790666666666669	1.1
824.4028098538056	0.16439999999999996	1.2528000000000001	1.1
824.7106886555781	0.15949999999999995	1.2557333333333336	1.1
824.7106886555781	0.1650666666666666	1.3716000000000002	1.1
824.9035054037963	0.17299999999999993	1.428	1.1
825.2133414125299	0.16129999999999994	1.3300000000000003	1.1
825.3109756155238	0.16329999999999995	1.3066666666666669	1.1
825.3027540333735	0.16329999999999995	1.3956	1.1
825.3027540333735	0.16479999999999995	1.3956	1.1
825.3110559927271	0.16853333333333326	1.4667999999999999	1.1
825.6178398129869	0.1599666666666666	1.48	1.1
825.6207388380819	0.17013333333333325	1.394	1.1
825.6207388380819	0.16933333333333328	1.353866666666667	1.1
825.7156050466587	0.16813333333333327	1.3376000000000003	1.1
825.7156050466587	0.15939999999999993	1.3152000000000004	1.1
826.1164593911393	0.1696666666666666	1.4234666666666664	1.1
826.928897015793	0.17526666666666663	1.48	1.1
826.928897015793	0.15763333333333326	1.318666666666667	1.1
827.0288620611058	0.15763333333333326	1.3537333333333337	1.1
827.0341401314557	0.16029999999999994	1.3476000000000004	1.1
827.3391344128056	0.15629999999999994	1.3476000000000004	1.1
827.3391344128056	0.15293333333333328	1.3197333333333336	1.1
827.3432492484549	0.1571666666666666	1.3192000000000004	1.1
827.3432492484549	0.16253333333333325	1.292266666666667	1.1
828.2540178500299	0.16043333333333326	1.2796	1.1
828.2465694039586	0.17303333333333326	1.48	1.1
828.2465694039586	0.1714333333333333	1.4815999999999998	1.1
828.660248203587	0.16123333333333328	1.3553333333333335	1.1
828.7606615116189	0.15663333333333326	1.3204000000000005	1.1
828.8614477612448	0.16526666666666662	1.4461333333333333	1.1
828.8614477612448	0.16526666666666662	1.4420000000000002	1.1
829.3764966675461	0.17639999999999995	1.3286666666666667	1.1
829.3759743203783	0.17556666666666662	1.3286666666666667	1.1
829.3768550742569	0.17509999999999995	1.3478666666666668	1.1
829.4746490490179	0.16769999999999996	1.4745333333333335	1.1
829.4746490490179	0.16149999999999995	1.3598666666666668	1.1
829.8918883419457	0.1661666666666666	1.3272000000000004	1.1
830.0857778957392	0.16639999999999996	1.4071999999999998	1.1
830.3986670535628	0.16019999999999995	1.337866666666667	1.1
830.3986670535628	0.1567666666666666	1.3990666666666667	1.1
830.5999811728601	0.16559999999999994	1.4	1.1
831.2152529774913	0.16349999999999995	1.362666666666667	1.1
831.2151621845103	0.16349999999999995	1.4006666666666667	1.1
831.2156720708683	0.15599999999999994	1.4798666666666667	1.1
831.2156720708683	0.16529999999999997	1.4798666666666667	1.1
831.7283615031856	0.15869999999999995	1.4749333333333334	1.1
831.7253124836534	0.16323333333333329	1.3216000000000003	1.1
831.7253124836534	0.15329999999999994	1.3164000000000002	1.1
831.7253124836534	0.1611666666666666	1.3460000000000003	1.1
832.5474415601591	0.17643333333333325	1.3712	1.1
832.5472785867495	0.1709666666666666	1.3092000000000004	1.1
832.650803139545	0.16629999999999992	1.3934666666666666	1.1
832.9633618832846	0.1663666666666666	1.4792	1.1
832.9633618832846	0.17259999999999992	1.3997333333333335	1.1
832.9643479965501	0.17259999999999992	1.3998666666666668	1.1
832.9643479965501	0.16493333333333327	1.334	1.1
833.3711913192675	0.18509999999999996	1.334	1.1
833.3711913192675	0.1866666666666666	1.3200000000000003	1.1
833.3740657722467	0.1792666666666666	1.3068000000000002	1.1
833.8904319922083	0.19149999999999992	1.2348000000000001	1.1
833.8902829603447	0.19893333333333327	1.1304	1.1
833.8903097839456	0.19303333333333325	1.082	1.1
833.8903097839456	0.19256666666666658	1.1253333333333335	1.1
834.3029515514409	0.22623333333333326	1.0857333333333334	1.1
834.3034350246572	0.22949999999999993	1.0701333333333334	1.1
834.7180852776761	0.21443333333333328	0.6587999999999999	1.1
834.7180852776761	0.21443333333333328	0.25280000000000014	1.1
835.0202402317932	0.16399999999999995	0.08400000000000007	1.1
835.2380904762018	0.14356666666666662	0.08400000000000007	1.1
835.4374936152062	0.13199999999999992	0.04733333333333338	1.1
835.647445201449	0.11893333333333328	0.013733333333333346	1.1
835.647445201449	0.11716666666666664	-0.027333333333333355	1.1
835.8134511069098	0.11143333333333329	-0.03280000000000003	1.1
836.0702444885793	0.10809999999999995	-0.032266666666666693	1.1
836.5839033333884	0.10229999999999995	-0.03373333333333336	1.1
836.5839033333884	0.10856666666666662	-0.03293333333333336	1.1
836.5832649336136	0.11066666666666664	-0.03573333333333337	1.1
836.7983687140631	0.10779999999999997	-0.03360000000000003	1.1
837.0432261625473	0.10779999999999997	-0.03360000000000003	1.1
837.1097397519321	0.10386666666666662	-0.03360000000000003	1.1
837.1097397519321	0.10986666666666663	-0.035466666666666695	1.1
837.4190912816479	0.10949999999999996	-0.031600000000000024	1.1
837.106213415097	0.10156666666666662	-0.03373333333333336	1.1
837.5255715135233	0.10656666666666662	-0.03360000000000003	1.1
837.5255715135233	0.10339999999999995	-0.032533333333333365	1.1
837.7267415792445	0.1112333333333333	-0.0350666666666667	1.1
838.1491867695446	0.1026333333333333	-0.03240000000000003	1.1
838.1492934929457	0.10869999999999995	-0.03240000000000003	1.1
838.9826247015162	0.10856666666666662	-0.03520000000000003	1.1
838.9826247015162	0.10856666666666662	-0.034933333333333365	1.1
838.6718276445068	0.10249999999999995	-0.031200000000000026	1.1
838.8751353716269	0.10109999999999995	-0.031200000000000026	1.1
839.4024134343267	0.10963333333333329	-0.0338666666666667	1.1
839.4024134343267	0.10626666666666663	-0.034933333333333365	1.1
839.4038868809669	0.10643333333333328	-0.034266666666666695	1.1
839.4038706330197	0.11009999999999996	-0.0334666666666667	1.1
839.9208146837377	0.10466666666666662	-0.03453333333333337	1.1
839.9208146837377	0.10336666666666662	-0.03200000000000003	1.1
840.4396314394022	0.10669999999999998	-0.03293333333333336	1.1
840.4497911191007	0.10329999999999996	-0.03106666666666669	1.1
840.867236933001	0.10546666666666663	-0.03453333333333337	1.1
840.8710078318344	0.10546666666666663	-0.03440000000000003	1.1
840.8710078318344	0.10736666666666662	-0.03440000000000003	1.1
840.8681806326125	0.11286666666666662	-0.034266666666666695	1.1
840.8675443577971	0.10929999999999997	-0.03293333333333336	1.1
840.8675443577971	0.10636666666666662	-0.03146666666666669	1.1
840.8675443577971	0.10216666666666663	-0.033066666666666696	1.1
841.3868032020359	0.10599999999999996	-0.03320000000000003	1.1
841.5068862637385	0.10576666666666663	-0.033066666666666696	1.1
841.603554593287	0.10693333333333328	-0.03240000000000003	1.1
841.7074634550214	0.10386666666666663	-0.03360000000000003	1.1
841.7074634550214	0.10773333333333329	-0.0334666666666667	1.1
842.0242947141829	0.10773333333333329	-0.03400000000000003	1.1
842.5507437952568	0.10556666666666663	-0.033066666666666696	1.1
842.6564058361661	0.11146666666666662	-0.033066666666666696	1.1
842.6564058361661	0.1078333333333333	-0.0338666666666667	1.1
842.6563032030667	0.10193333333333328	-0.031600000000000024	1.1
843.1232375596063	0.10776666666666661	-0.032266666666666693	1.1
843.2916407321212	0.10876666666666662	-0.03280000000000003	1.1
844.2441541559496	0.11063333333333328	-0.03586666666666669	1.1
844.2441541559496	0.11026666666666661	-0.0346666666666667	1.1
844.3441571172873	0.10373333333333329	-0.03333333333333336	1.1
844.4511173439894	0.10546666666666663	-0.03320000000000003	1.1
844.6663941090897	0.10546666666666663	-0.03240000000000003	1.1
844.6663941090897	0.10189999999999995	-0.03213333333333336	1.1
844.7722901184595	0.09936666666666662	-0.03213333333333336	1.1
844.774149208781	0.10449999999999994	-0.0350666666666667	1.1
844.8763763502117	0.10989999999999994	-0.03440000000000003	1.1
844.9784224634295	0.10906666666666662	-0.03453333333333337	1.1
844.9784224634295	0.10883333333333331	-0.03240000000000003	1.1
843.1231818160504	0.09943333333333328	-0.03173333333333336	1.1
842.9725750543182	0.09736666666666662	-0.031200000000000026	1.1
842.9725750543182	0.10416666666666662	-0.03413333333333336	1.1
842.6534404913134	0.10899999999999996	-0.03586666666666669	1.1
842.4480998679626	0.10876666666666661	-0.03280000000000003	1.1
841.9109819939265	0.11023333333333328	-0.03373333333333336	1.1
841.9106635184579	0.10569999999999996	-0.03360000000000003	1.1
841.9106635184579	0.10519999999999996	-0.03400000000000003	1.1
841.6042904994014	0.10589999999999997	-0.03440000000000003	1.1
841.7395055188955	0.10589999999999997	-0.030533333333333357	1.1
841.3861289995135	0.09709999999999995	-0.03106666666666669	1.1
841.3861289995135	0.10496666666666661	-0.03106666666666669	1.1
841.3912052224255	0.10723333333333329	-0.03280000000000003	1.1
840.9792991374236	0.1042333333333333	-0.03240000000000003	1.1
840.979306080494	0.10649999999999996	-0.031333333333333366	1.1
840.8675692066172	0.10459999999999994	-0.03293333333333336	1.1
840.8675692066172	0.10466666666666662	-0.03293333333333336	1.1
841.1431601072194	0.10393333333333328	-0.03266666666666669	1.1
840.447762379213	0.10876666666666661	-0.031200000000000026	1.1
840.4495620496633	0.10849999999999994	-0.0338666666666667	1.1
840.4495620496633	0.1080333333333333	-0.03320000000000003	1.1
839.4991284178639	0.1080333333333333	-0.0334666666666667	1.1
839.5031033439603	0.10196666666666662	-0.0334666666666667	1.1
839.4040930798178	0.10699999999999993	-0.03360000000000003	1.1
839.2961160153802	0.10819999999999995	-0.035600000000000034	1.1
839.2961160153802	0.10819999999999995	-0.0338666666666667	1.1
838.8790659352024	0.10769999999999996	-0.03400000000000003	1.1
838.6696892007369	0.10273333333333329	-0.031333333333333366	1.1
838.1482043027352	0.10613333333333329	-0.03440000000000003	1.1
837.7303736249628	0.10603333333333329	-0.030400000000000028	1.1
837.7303736249628	0.10549999999999995	-0.03360000000000003	1.1
837.7312591280826	0.10893333333333328	-0.03400000000000003	1.1
837.7317140569456	0.10893333333333328	-0.034266666666666695	1.1
837.40974359629	0.11989999999999995	-0.030400000000000028	1.1
837.40974359629	0.10323333333333329	-0.030400000000000028	1.1
837.409729563288	0.10126666666666663	-0.029066666666666692	1.1
837.00149770981	0.10986666666666663	-0.0346666666666667	1.1
836.7884094966477	0.11063333333333328	-0.03413333333333336	1.1
836.7884094966477	0.10776666666666661	-0.031866666666666696	1.1
836.7884420640111	0.10779999999999997	-0.031866666666666696	1.1
836.2749840011775	0.09716666666666661	-0.030266666666666695	1.1
836.2656867057512	0.1099333333333333	-0.030400000000000028	1.1
836.0615194107288	0.10966666666666659	-0.0338666666666667	1.1
836.0615194107288	0.10333333333333329	-0.031866666666666696	1.1
836.0615671821588	0.10333333333333329	-0.03293333333333336	1.1
835.7545276074683	0.10519999999999996	-0.03373333333333336	1.1
835.6457857735352	0.10886666666666663	-0.03373333333333336	1.1
835.6457857735352	0.11046666666666662	-0.029200000000000028	1.1
835.3393005216453	0.11463333333333328	-0.016000000000000014	1.1
835.0326901593585	0.12616666666666662	0.05746666666666672	1.1
834.717027969379	0.1371666666666666	0.10933333333333342	1.1
834.7173122042149	0.15863333333333327	0.20280000000000017	1.1
834.7173122042149	0.1823666666666666	0.4560000000000001	1.1
834.3024761360385	0.2136666666666666	0.7169333333333334	1.1
834.2983666097394	0.22139999999999996	1.1230666666666667	1.1
833.8903407159921	0.2080666666666666	1.1954666666666667	1.1
833.8922039583681	0.2080666666666666	1.1945333333333337	1.1
833.8922039583681	0.20823333333333327	1.3876000000000002	1.1
833.3801178475065	0.19303333333333328	1.3876000000000002	1.1
833.3731698478939	0.1905666666666666	1.4156	1.1
833.3731698478939	0.17323333333333327	1.3988	1.1
833.3731698478939	0.17526666666666663	1.3496000000000004	1.1
832.9667061598467	0.17709999999999992	1.3837333333333335	1.1
832.9641369293607	0.1741666666666666	1.3946666666666665	1.1
832.7555688339436	0.17583333333333326	1.3373333333333335	1.1
832.5465007172037	0.17429999999999993	1.3901333333333334	1.1
832.5465007172037	0.16719999999999993	1.3790666666666667	1.1
832.5465007172037	0.16296666666666662	1.3237333333333334	1.1
832.1406647424018	0.16296666666666662	1.4021333333333332	1.1
832.1406647424018	0.16166666666666663	1.2969333333333335	1.1
832.1406647424018	0.1552666666666666	1.2969333333333335	1.1
831.5262527417761	0.15729999999999994	1.2405333333333335	1.1
831.2133712767878	0.1655666666666666	1.4527999999999996	1.1
831.1182147488726	0.14889999999999995	1.4765333333333333	1.1
830.8054681369024	0.16073333333333328	1.3928	1.1
830.8054681369024	0.1637333333333333	1.3529333333333338	1.1
830.393009539647	0.16089999999999993	1.3394666666666668	1.1
830.4013480703092	0.16279999999999994	1.3849333333333336	1.1
829.9868905329303	0.1571333333333333	1.3920000000000001	1.1
829.9868905329303	0.16269999999999993	1.377066666666667	1.1
829.9851944576714	0.15793333333333326	1.3801333333333337	1.1
829.4797247402119	0.15793333333333326	1.339866666666667	1.1
829.4748160951248	0.15569999999999992	1.339866666666667	1.1
829.2783428619263	0.15473333333333328	1.3204000000000005	1.1
829.2783428619263	0.16369999999999996	1.3756000000000002	1.1
829.2751259195633	0.16066666666666662	1.3406666666666671	1.1
828.7615181812533	0.15686666666666663	1.2793333333333337	1.1
828.7615181812533	0.16099999999999995	1.3337333333333334	1.1
828.7615181812533	0.15359999999999996	1.3260000000000003	1.1
828.8573434936258	0.15923333333333328	1.4056	1.1
828.3482408707465	0.16373333333333326	1.4693333333333332	1.1
828.3482408707465	0.15779999999999997	1.4788	1.1
827.94197092987	0.15779999999999997	1.4818666666666664	1.1
827.94197092987	0.1703666666666666	1.4237333333333333	1.1
827.3322934328617	0.17373333333333327	1.4237333333333333	1.1
827.3322934328617	0.1606666666666666	1.3593333333333335	1.1
827.0296934866182	0.17119999999999996	1.3688000000000002	1.1
827.0296934866182	0.16639999999999994	1.3789333333333336	1.1
827.0296934866182	0.15903333333333328	1.3045333333333335	1.1
826.5235580858575	0.15133333333333326	1.2644000000000002	1.1
826.1220386562886	0.16079999999999994	1.3533333333333335	1.1
825.715436622372	0.15903333333333328	1.4017333333333335	1.1
825.715436622372	0.16673333333333326	1.3364000000000003	1.1
825.6142451967088	0.16299999999999995	1.3208000000000004	1.1
825.7163237100514	0.16396666666666662	1.3769333333333336	1.1
825.4042565643075	0.16396666666666662	1.4226666666666665	1.1
825.4087639903104	0.1659333333333333	1.4027999999999998	1.1
825.4087639903104	0.1635666666666666	1.4027999999999998	1.1
825.3077415903812	0.17709999999999992	1.4186666666666667	1.1
825.2116802440794	0.16739999999999994	1.326666666666667	1.1
824.8034440728637	0.15939999999999993	1.2598666666666667	1.1
824.8034440728637	0.16023333333333326	1.3514666666666668	1.1
824.4026805068697	0.16689999999999994	1.4268	1.1
824.3091006831269	0.16216666666666663	1.3200000000000003	1.1
824.2957511732446	0.16969999999999993	1.3145333333333336	1.1
824.1391239805292	0.17109999999999995	1.3806666666666667	1.1
824.1391239805292	0.16459999999999994	1.3825333333333334	1.1
823.8998023050142	0.16459999999999994	1.326266666666667	1.1
823.4944659203385	0.16699999999999993	1.4593333333333331	1.1
823.4944659203385	0.1705666666666666	1.4593333333333331	1.1
823.4944659203385	0.16509999999999997	1.4798666666666667	1.1
822.489109750148	0.1771666666666666	1.48	1.1
822.292826717588	0.16299999999999992	1.2705333333333335	1.1
822.1929488852404	0.1708666666666666	1.2312	1.1
821.8881002235279	0.1644666666666666	1.2400000000000002	1.1
821.8881002235279	0.17193333333333327	1.3256000000000001	1.1
821.7911146276991	0.17343333333333327	1.3998666666666668	1.1
821.7921655213918	0.17119999999999996	1.3937333333333335	1.1
821.8926059825257	0.18016666666666661	1.364666666666667	1.1
821.8926059825257	0.18016666666666661	1.3201333333333336	1.1
821.7932858526223	0.1741999999999999	1.2937333333333336	1.1
821.0882414653875	0.17759999999999992	1.2937333333333336	1.1
821.0883783136364	0.17539999999999992	1.3357333333333337	1.1
820.8245035925305	0.16879999999999995	1.3956000000000002	1.1
820.8245035925305	0.16879999999999992	1.3156	1.1
820.6845819078816	0.1698666666666666	1.2980000000000003	1.1
820.5908920297998	0.1839999999999999	1.3196000000000003	1.1
819.7903963282644	0.1849666666666666	1.3272000000000004	1.1
819.7903963282644	0.17839999999999995	1.3318666666666668	1.1
819.7893197721988	0.1830666666666666	1.3844	1.1
819.6970586460118	0.1850999999999999	1.3457333333333337	1.1
818.6899231617546	0.1850999999999999	1.2382666666666666	1.1
818.5908412166151	0.17666666666666658	1.1862666666666666	1.1
818.5908412166151	0.17539999999999994	1.1862666666666666	1.1
818.5917300599793	0.17659999999999995	1.1601333333333337	1.1
818.5917300599793	0.17686666666666662	1.1809333333333334	1.1
818.2957898916312	0.1799666666666666	1.2377333333333336	1.1
818.2957898916312	0.17109999999999995	1.214266666666667	1.1
818.2875227257265	0.1789666666666666	1.2400000000000002	1.1
818.1912213246428	0.17729999999999993	1.3041333333333336	1.1
817.4929283194189	0.1860666666666666	1.2024000000000001	1.1
817.4949360626953	0.17589999999999995	1.2177333333333336	1.1
817.4949360626953	0.18169999999999992	1.2305333333333337	1.1
817.3040096099146	0.18169999999999992	1.2064000000000001	1.1
816.9069892385277	0.17979999999999993	1.319466666666667	1.1
816.8115533229131	0.18149999999999994	1.319466666666667	1.1
816.8115533229131	0.17653333333333326	1.3200000000000003	1.1
816.214379236051	0.1827666666666666	1.2857333333333336	1.1
816.210316444559	0.18173333333333327	1.16	1.1
815.323090880318	0.1803666666666666	1.16	1.1
815.3208126790323	0.19103333333333325	1.2792000000000003	1.1
815.3208126790323	0.18923333333333328	1.3734666666666668	1.1
815.3208126790323	0.18509999999999996	1.2420000000000004	1.1
814.7380160314062	0.1744666666666666	1.1600000000000001	1.1
814.738771381982	0.1912666666666666	1.3108000000000002	1.1
814.738771381982	0.19893333333333327	1.3990666666666667	1.1
814.7401216385288	0.19893333333333327	1.4016	1.1
814.7391592910467	0.1954666666666666	1.4004	1.1
814.5379536605366	0.20203333333333326	1.4004	1.1
814.5379536605366	0.19319999999999993	1.3972	1.1
814.5379536605366	0.1910666666666666	1.3310666666666668	1.1
814.0467307903642	0.18703333333333327	1.2404000000000002	1.1
813.1623543622056	0.19123333333333326	1.2704000000000002	1.1
813.1640613456865	0.19163333333333327	1.2804000000000004	1.1
813.1640613456865	0.19533333333333328	1.2192	1.1
813.0723234469032	0.1836666666666666	1.2402666666666669	1.1
810.9778748825519	0.18623333333333325	1.2260000000000002	1.1
812.6773868977921	0.1998666666666666	1.3612000000000004	1.1
811.7983353406457	0.1998666666666666	1.2801333333333336	1.1
811.7983353406457	0.19336666666666658	1.2801333333333336	1.1
811.5042504267262	0.18903333333333328	1.1646666666666667	1.1
811.4995820448814	0.18439999999999993	1.1600000000000001	1.1
811.5041448672591	0.1825666666666666	1.1480000000000001	1.1
811.5041448672591	0.18536666666666662	1.1973333333333336	1.1
811.4056894310676	0.19199999999999992	1.3196	1.1
811.3026960138117	0.19643333333333327	1.3330666666666668	1.1
811.3023291571367	0.2032333333333333	1.305466666666667	1.1
811.1099513058565	0.19449999999999992	1.3168000000000002	1.1
811.1099513058565	0.19759999999999991	1.4012	1.1
810.7244019124203	0.2011666666666666	1.3889333333333334	1.1
810.7244019124203	0.2011666666666666	1.2138666666666669	1.1
810.4221234543063	0.18729999999999994	1.2138666666666669	1.1
810.4221234543063	0.19183333333333327	1.3146666666666669	1.1
810.2345219480214	0.18899999999999995	1.1686666666666667	1.1
809.4512844008116	0.1955666666666666	1.1597333333333335	1.1
809.4575211638379	0.18953333333333325	1.1601333333333337	1.1
809.4534390751076	0.18229999999999993	1.16	1.1
809.4534390751076	0.18633333333333327	1.16	1.1
809.3597555149603	0.1931666666666666	1.1930666666666667	1.1
809.3597555149603	0.20109999999999992	1.2480000000000002	1.1
808.2887182078006	0.1888999999999999	1.2320000000000002	1.1
808.2887182078006	0.1888999999999999	1.1601333333333335	1.1
808.1043149538174	0.18749999999999994	1.16	1.1
808.1009696194337	0.19093333333333323	1.16	1.1
807.9981194793478	0.20429999999999993	1.2329333333333334	1.1
807.9018429848178	0.19413333333333324	1.2128000000000003	1.1
807.9018429848178	0.19549999999999992	1.1605333333333334	1.1
807.9004857906828	0.19146666666666662	1.1674666666666669	1.1
807.9015895957504	0.19823333333333326	1.2357333333333334	1.1
807.8064027370118	0.1967666666666666	1.2864000000000002	1.1
807.8064027370118	0.19253333333333325	1.2477333333333336	1.1
807.4191854944404	0.1881666666666666	1.16	1.1
807.4191854944404	0.19103333333333328	1.1757333333333335	1.1
806.8064081475164	0.19103333333333328	1.3030666666666668	1.1
806.076762274247	0.19439999999999993	1.1665333333333334	1.1
806.076762274247	0.18843333333333326	1.1665333333333334	1.1
806.0717471963113	0.19226666666666659	1.205066666666667	1.1
806.0717471963113	0.18863333333333326	1.1876000000000002	1.1
805.7795350603016	0.19699999999999993	1.1765333333333334	1.1
805.7795350603016	0.18913333333333326	1.244666666666667	1.1
804.8176825763777	0.18809999999999993	1.2372000000000003	1.1
804.7342318499185	0.18809999999999993	1.2032	1.1
804.8611745350945	0.1978999999999999	1.1788	1.1
804.4392653255313	0.17963333333333326	1.1554666666666666	1.1
804.4392653255313	0.1884666666666666	1.0854666666666666	1.1
804.2399337473738	0.18023333333333327	1.09	1.1
804.2423055747525	0.18023333333333327	1.098	1.1
804.2409862431927	0.18653333333333327	1.098	1.1
804.2409862431927	0.18973333333333328	1.1285333333333336	1.1
804.0542213344247	0.1806666666666666	1.1528	1.1
804.0614930240065	0.18503333333333324	1.1576000000000002	1.1
803.3946891111177	0.18173333333333327	1.1604	1.1
802.7212612533925	0.18773333333333325	1.1673333333333336	1.1
802.7212612533925	0.19943333333333327	1.1604	1.1
802.7225649407554	0.18249999999999994	1.2426666666666668	1.1
802.7226422255086	0.19233333333333327	1.2884000000000002	1.1
802.3347255276549	0.19339999999999993	1.285866666666667	1.1
802.3347255276549	0.19339999999999993	1.1737333333333335	1.1
801.3861964037097	0.1908666666666666	1.0949333333333333	1.1
801.3892222725626	0.19033333333333327	1.0949333333333333	1.1
801.2829291031114	0.18726666666666658	1.1276	1.1
801.2829291031114	0.18539999999999995	1.1597333333333335	1.1
801.1931831954863	0.18733333333333324	1.2036000000000002	1.1
801.1920280922177	0.19089999999999993	1.2613333333333336	1.1
801.1910280877572	0.19143333333333326	1.2078666666666669	1.1
801.0959892875607	0.18329999999999994	1.0805333333333331	1.1
801.0959892875607	0.1736666666666666	1.0541333333333334	1.1
801.098265364643	0.17279999999999995	1.0553333333333335	1.1
800.8153771124731	0.18453333333333327	1.0797333333333332	1.1
800.8123185046804	0.18453333333333327	1.1596000000000002	1.1
800.8123185046804	0.1880666666666666	1.1293333333333335	1.1
800.4315809164397	0.18506666666666657	1.1293333333333335	1.1
800.4315809164397	0.17423333333333327	1.1622666666666668	1.1
800.3390400330937	0.1899333333333333	1.0894666666666668	1.1
