wavelength(nm)	flourescence PMT(V)	ti_saph Power (V)	Gain (V)
820.7787970743879	0.03153333333333325	7.399999999999999	0.5
820.7787970743879	0.032566666666666584	7.399999999999999	0.5
821.0825349358623	0.03839999999999992	7.407866666666665	0.5
821.0750601750336	0.03776666666666659	7.409733333333332	0.5
821.0750601750336	0.03956666666666659	7.437999999999999	0.5
821.0750601750336	0.04073333333333326	7.449466666666667	0.5
821.7754766725105	0.035766666666666586	7.399999999999999	0.5
821.776644771201	0.03346666666666659	7.3048	0.5
821.776644771201	0.03229999999999992	7.356133333333334	0.5
821.776644771201	0.034066666666666585	7.399999999999999	0.5
822.1757110520294	0.040033333333333254	7.442533333333333	0.5
822.1757110520294	0.040033333333333254	7.444266666666666	0.5
822.1729809584943	0.04013333333333326	7.444266666666666	0.5
822.4764525716927	0.04059999999999993	7.441333333333332	0.5
822.4764525716927	0.03803333333333326	7.399999999999999	0.5
823.482456080827	0.03706666666666659	7.402266666666665	0.5
823.482456080827	0.04493333333333326	7.4628000000000005	0.5
823.482456080827	0.04469999999999993	7.4589333333333325	0.5
823.7859569760429	0.04266666666666659	7.444933333333332	0.5
824.0915525263434	0.040499999999999925	7.424933333333332	0.5
824.0915525263434	0.03943333333333326	7.400399999999999	0.5
824.0915525263434	0.044599999999999924	7.442533333333334	0.5
824.4018263200434	0.044599999999999924	7.434399999999999	0.5
824.6878008775606	0.04056666666666659	7.434399999999999	0.5
824.6878008775606	0.03936666666666659	7.399999999999999	0.5
824.6878008775606	0.035933333333333255	7.372800000000001	0.5
824.9965567977517	0.03749999999999992	7.399599999999999	0.5
824.9965567977517	0.03626666666666659	7.377866666666667	0.5
825.306865007691	0.04089999999999993	7.405866666666665	0.5
825.4049028146027	0.04539999999999993	7.441466666666667	0.5
825.4049028146027	0.04469999999999993	7.441733333333332	0.5
825.4049028146027	0.04419999999999993	7.441333333333332	0.5
825.5955065759979	0.04663333333333326	7.4454666666666665	0.5
825.5955065759979	0.04663333333333326	7.4403999999999995	0.5
825.8040065572973	0.0453666666666666	7.400399999999999	0.5
826.072004591981	0.04129999999999993	7.400399999999999	0.5
826.072004591981	0.04153333333333326	7.404933333333332	0.5
826.072004591981	0.04139999999999992	7.400133333333332	0.5
827.0253134479979	0.042299999999999935	7.399999999999999	0.5
827.0253134479979	0.04629999999999993	7.438533333333331	0.5
827.0253124492093	0.0493666666666666	7.4403999999999995	0.5
827.2229015099673	0.04919999999999993	7.442533333333333	0.5
827.7334129616712	0.04653333333333327	7.438399999999999	0.5
827.7334129616712	0.050333333333333265	7.445333333333333	0.5
828.0395781602952	0.050333333333333265	7.472400000000001	0.5
828.0396074055441	0.05519999999999994	7.479733333333334	0.5
828.0396074055441	0.059633333333333274	7.479733333333334	0.5
828.0309656006017	0.05903333333333328	7.479733333333334	0.5
828.6430484616266	0.056399999999999936	7.4732	0.5
828.6430484616266	0.05019999999999994	7.451999999999998	0.5
828.7491205002635	0.04693333333333327	7.427466666666666	0.5
828.7514962753824	0.050333333333333265	7.439733333333332	0.5
828.7514962753824	0.05739999999999994	7.457333333333333	0.5
828.7514962753824	0.04779999999999993	7.411866666666665	0.5
829.2527925045855	0.04359999999999993	7.399999999999999	0.5
829.2527925045855	0.04359999999999993	7.401333333333332	0.5
829.3648077777558	0.04613333333333326	7.441466666666665	0.5
829.4622275233659	0.05159999999999993	7.441466666666665	0.5
829.9799521129803	0.0500666666666666	7.439466666666665	0.5
829.9799521129803	0.0522666666666666	7.440533333333333	0.5
829.9331772872051	0.05546666666666661	7.441733333333332	0.5
829.9331772872051	0.06106666666666661	7.469200000000001	0.5
829.9331772872051	0.05463333333333326	7.444133333333332	0.5
829.9331772872051	0.05223333333333327	7.4345333333333325	0.5
831.2013594469357	0.052966666666666606	7.440133333333333	0.5
831.2013594469357	0.047899999999999936	7.399999999999999	0.5
831.2002801716997	0.047899999999999936	7.399999999999999	0.5
831.2011781343798	0.045899999999999934	7.399999999999999	0.5
831.2011781343798	0.04649999999999993	7.399999999999999	0.5
831.7187041526253	0.0480666666666666	7.399999999999999	0.5
831.9638535354419	0.04609999999999993	7.399999999999999	0.5
831.9638535354419	0.04723333333333326	7.399999999999999	0.5
832.1359135044195	0.05379999999999993	7.428399999999998	0.5
832.543275226658	0.053599999999999946	7.410399999999999	0.5
832.7473104183849	0.05469999999999994	7.425733333333333	0.5
832.7473104183849	0.05839999999999994	7.438799999999998	0.5
832.7370834789537	0.0580666666666666	7.440533333333333	0.5
833.0533617066649	0.06309999999999995	7.443866666666666	0.5
833.0533617066649	0.06309999999999995	7.433733333333333	0.5
833.4689092263354	0.056266666666666604	7.433733333333333	0.5
833.4689092263354	0.05633333333333327	7.4155999999999995	0.5
833.4689092263354	0.06919999999999994	7.4758666666666675	0.5
833.4697006563144	0.07209999999999996	7.479866666666667	0.5
833.9856068122708	0.06906666666666661	7.472533333333333	0.5
833.9856068122708	0.06763333333333328	7.457466666666666	0.5
834.290204561562	0.07249999999999995	7.477333333333333	0.5
834.2907497134051	0.07333333333333329	7.48	0.5
834.2907497134051	0.07056666666666662	7.473599999999999	0.5
834.9122090657227	0.06893333333333329	7.4530666666666665	0.5
834.9119191419896	0.06893333333333329	7.4454666666666665	0.5
834.9119191419896	0.06786666666666662	7.4454666666666665	0.5
835.3257058654056	0.06849999999999995	7.4428	0.5
835.4235619507601	0.07216666666666662	7.4728	0.5
835.740815484216	0.07463333333333329	7.4796000000000005	0.5
835.740815484216	0.0761333333333333	7.48	0.5
835.7405600676849	0.07183333333333329	7.456133333333334	0.5
836.2571369236855	0.06883333333333329	7.444133333333332	0.5
836.2571369236855	0.07573333333333328	7.463466666666666	0.5
836.5788360125771	0.07123333333333329	7.443999999999999	0.5
836.7800578387096	0.07166666666666661	7.444533333333332	0.5
836.7800578387096	0.07166666666666661	7.4768	0.5
836.7808779768028	0.0769333333333333	7.4792	0.5
837.0888893907656	0.07809999999999995	7.4792	0.5
837.0888893907656	0.0754333333333333	7.4712000000000005	0.5
837.0926725695496	0.07429999999999995	7.464933333333332	0.5
837.5080314883356	0.07143333333333328	7.445466666666667	0.5
837.5080314883356	0.07273333333333329	7.446533333333334	0.5
837.7231465813131	0.07099999999999994	7.441599999999998	0.5
837.9203567763823	0.07039999999999995	7.440266666666666	0.5
838.2382701655322	0.0778333333333333	7.476266666666667	0.5
838.2382701655322	0.07523333333333329	7.447733333333332	0.5
838.4448537195842	0.07523333333333329	7.4620000000000015	0.5
838.9689402637282	0.07729999999999995	7.48	0.5
838.9689402637282	0.08003333333333329	7.48	0.5
839.2854056368504	0.0799333333333333	7.48	0.5
839.4907172863689	0.07963333333333329	7.472266666666668	0.5
839.4907172863689	0.07889999999999996	7.454933333333332	0.5
839.5345884300292	0.07926666666666662	7.464533333333332	0.5
840.0185583501285	0.07989999999999994	7.479066666666667	0.5
840.0185583501285	0.07986666666666663	7.474133333333333	0.5
839.1084720712117	0.07979999999999995	7.4796000000000005	0.5
840.4394545456436	0.07739999999999995	7.444933333333332	0.5
840.4394545456436	0.07763333333333329	7.447866666666665	0.5
840.4394545456436	0.07763333333333329	7.4788000000000014	0.5
840.8493811436805	0.07986666666666663	7.4788000000000014	0.5
840.8493811436805	0.08006666666666662	7.479866666666667	0.5
840.958941882291	0.08009999999999996	7.48	0.5
840.9591263113829	0.07993333333333329	7.4778666666666656	0.5
840.9591263113829	0.07996666666666663	7.468666666666667	0.5
841.2801591817315	0.07946666666666663	7.448933333333333	0.5
841.5986804037104	0.07996666666666663	7.474666666666665	0.5
841.5986804037104	0.08019999999999997	7.479466666666667	0.5
841.6977662044694	0.08063333333333329	7.48	0.5
842.0091924402491	0.08019999999999997	7.48	0.5
842.0091924402491	0.08019999999999997	7.48	0.5
842.4271154801745	0.08599999999999994	7.479866666666667	0.5
842.7567036287179	0.08159999999999994	7.479866666666667	0.5
842.7567036287179	0.08443333333333326	7.48	0.5
842.9654572565462	0.08639999999999994	7.48	0.5
843.477215824859	0.08389999999999993	7.479866666666667	0.5
843.477215824859	0.08303333333333328	7.48	0.5
843.3877194197385	0.09509999999999988	7.48	0.5
844.1228189808985	0.09853333333333321	7.48	0.5
844.1228189808985	0.09639999999999989	7.48	0.5
844.3959481635594	0.09889999999999988	7.48	0.5
844.3959481635594	0.09889999999999988	7.48	0.5
844.3959481635594	0.09899999999999987	7.48	0.5
844.6538276756983	0.09486666666666656	7.48	0.5
844.859202130294	0.09356666666666656	7.48	0.5
844.859202130294	0.09719999999999988	7.48	0.5
844.9677693530692	0.0995333333333332	7.48	0.5
844.9677693530692	0.09996666666666654	7.48	0.5
844.9677693530692	0.09959999999999987	7.4796000000000005	0.5
845.3949951886947	0.09993333333333321	7.48	0.5
845.3930239653494	0.09996666666666654	7.48	0.5
845.3930239653494	0.0998333333333332	7.479866666666667	0.5
845.3930239653494	0.1001333333333332	7.48	0.5
846.0305673265788	0.1001333333333332	7.48	0.5
846.0305673265788	0.10116666666666654	7.48	0.5
846.6707701755511	0.10789999999999987	7.48	0.5
846.7801060466437	0.10583333333333321	7.48	0.5
846.7801060466437	0.10286666666666655	7.48	0.5
846.9949725521973	0.10936666666666653	7.48	0.5
847.1502496503371	0.10506666666666653	7.479866666666667	0.5
847.1502496503371	0.11799999999999988	7.48	0.5
847.1502496503371	0.13093333333333323	7.4803999999999995	0.5
848.2679990035261	0.13026666666666656	7.480666666666666	0.5
848.2679990035261	0.12916666666666657	7.48	0.5
848.3785722237093	0.14606666666666657	7.4901333333333335	0.5
848.5846642419712	0.14606666666666657	7.480933333333334	0.5
848.5846642419712	0.1432666666666666	7.480933333333334	0.5
848.693096711009	0.1496999999999999	7.4817333333333345	0.5
848.8069487219166	0.15133333333333326	7.482266666666668	0.5
848.8069487219166	0.13683333333333322	7.48	0.5
848.7619845160602	0.14639999999999992	7.48	0.5
849.1279855790801	0.1470999999999999	7.48	0.5
849.1279855790801	0.13903333333333323	7.48	0.5
849.345319348726	0.14616666666666656	7.48	0.5
849.5515936480207	0.15213333333333323	7.48	0.5
849.5515936480207	0.15213333333333323	7.480266666666666	0.5
850.409652212104	0.1660999999999999	7.481066666666666	0.5
850.6313915925958	0.17769999999999994	7.481066666666666	0.5
850.6313915925958	0.18049999999999994	7.490533333333333	0.5
850.7402418261752	0.18269999999999992	7.494400000000001	0.5
850.9969823261531	0.18013333333333328	7.4807999999999995	0.5
850.9969823261531	0.18036666666666662	7.480533333333333	0.5
850.9969823261531	0.1978666666666666	7.485866666666667	0.5
852.1384836766616	0.23609999999999995	7.489733333333334	0.5
852.1384836766616	0.22356666666666664	7.480933333333334	0.5
852.1384836766616	0.22179999999999997	7.480266666666666	0.5
852.1405643897111	0.21843333333333328	7.48	0.5
852.1405643897111	0.21843333333333328	7.480666666666666	0.5
852.4595181236738	0.23843333333333333	7.480666666666666	0.5
852.6708787478913	0.23666666666666666	7.48	0.5
852.6708787478913	0.2518666666666666	7.489466666666667	0.5
852.7823067969357	0.2572333333333333	7.490533333333333	0.5
852.7823575832883	0.25309999999999994	7.485200000000002	0.5
852.7823575832883	0.2516333333333333	7.4807999999999995	0.5
853.0042760632058	0.26179999999999987	7.482400000000001	0.5
853.1127490351565	0.26006666666666656	7.480800000000001	0.5
853.1127490351565	0.27283333333333326	7.480666666666666	0.5
853.4305287407105	0.31066666666666654	7.485466666666667	0.5
854.4128779264224	0.31066666666666654	7.48	0.5
854.4128779264224	0.3400666666666665	7.48	0.5
854.4126285900599	0.3436333333333332	7.48	0.5
854.6270338543786	0.3468999999999998	7.48	0.5
854.6270338543786	0.3583999999999999	7.48	0.5
854.6325902147587	0.37036666666666657	7.48	0.5
855.8123021576356	0.4287666666666666	7.479866666666667	0.5
855.8123021576356	0.5659333333333333	7.48	0.5
855.8123021576356	0.5991999999999998	7.48	0.5
856.1440539305993	0.5974333333333331	7.48	0.5
856.1440539305993	0.5862333333333334	7.48	0.5
856.1470728022007	0.5871999999999999	7.479733333333334	0.5
856.2502618778157	0.5871999999999999	7.48	0.5
856.2502618778157	0.5988333333333332	7.48	0.5
856.5832999613723	0.6527666666666666	7.48	0.5
856.5832999613723	0.6937333333333333	7.48	0.5
856.4281411941811	0.7314666666666667	7.48	0.5
856.6995426485392	0.7362000000000001	7.48	0.5
856.6995426485392	0.7384333333333334	7.48	0.5
857.0224196987318	0.7421	7.48	0.5
857.0203036845849	0.7817	7.48	0.5
857.0203036845849	0.7794999999999999	7.48	0.5
857.0233770854826	0.8031999999999999	7.48	0.5
858.3364846209357	0.8031999999999999	5.134133333333334	0.5
858.3364846209357	0.5148999999999999	3.8573333333333335	0.5
858.3324057129732	0.3961666666666666	3.8573333333333335	0.5
858.4362282953721	0.3547666666666666	3.4334666666666664	0.5
858.4362282953721	0.30403333333333327	2.906933333333333	0.5
858.707565810216	0.2612666666666666	2.4430666666666667	0.5
858.707565810216	0.09009999999999994	0.6876000000000002	0.5
858.707565810216	0.09009999999999994	0.6876000000000002	0.5
859.9817522421492	0.09009999999999994	0.6876000000000002	0.5
860.086410276712	0.09009999999999994	0.6876000000000002	0.5
860.086410276712	0.03633333333333326	0.21080000000000018	0.5
860.0869003685517	0.03516666666666659	0.1988000000000002	0.5
860.0869003685517	0.03069999999999992	0.1562666666666668	0.5
860.3112742466842	0.03003333333333325	0.13733333333333345	0.5
860.4126388084953	0.029799999999999917	0.1316000000000001	0.5
860.4126388084953	0.026766666666666574	0.08893333333333342	0.5
860.6420007917231	0.026766666666666574	0.05946666666666672	0.5
860.6378125028625	0.02576666666666658	0.04773333333333338	0.5
860.6378125028625	0.026633333333333245	0.04773333333333338	0.5
860.8551561065308	0.025166666666666577	0.04626666666666671	0.5
860.8551561065308	0.023966666666666577	0.04400000000000004	0.5
860.8551561065308	0.02289999999999991	0.041200000000000035	0.5
862.0727963434358	0.020666666666666576	0.03893333333333337	0.5
862.2987327757648	0.04039999999999993	-0.0366666666666667	0.5
862.2987327757648	0.04439999999999993	-0.03920000000000003	0.5
862.299847506417	0.05919999999999995	-0.0398666666666667	0.5
862.5136892498983	0.06736666666666662	-0.0398666666666667	0.5
862.5136892498983	0.07359999999999994	-0.03960000000000003	0.5
863.7309031264455	0.07359999999999994	-0.037600000000000036	0.5
863.7309031264455	0.0964666666666666	-0.03653333333333337	0.5
863.8441621022594	0.17623333333333324	-0.03653333333333337	0.5
863.8441621022594	0.18053333333333327	-0.03973333333333337	0.5
863.8441621022594	0.18019999999999994	-0.0398666666666667	0.5
863.9532289482935	0.18119999999999994	-0.040000000000000036	0.5
864.0594647499023	0.19653333333333328	-0.04013333333333337	0.5
864.0594647499023	0.2198	-0.04013333333333337	0.5
864.2883375558102	0.2235	-0.040000000000000036	0.5
864.2883820459745	0.24186666666666667	-0.0390666666666667	0.5
864.2883820459745	0.25556666666666655	-0.03960000000000003	0.5
864.4026559078351	0.2574666666666666	-0.03973333333333337	0.5
864.6156453159871	0.2574666666666666	-0.03973333333333337	0.5
864.6156453159871	0.2610999999999999	-0.040000000000000036	0.5
864.6240353625922	0.2877999999999999	-0.040000000000000036	0.5
864.7368327241863	0.3009333333333333	-0.0390666666666667	0.5
864.7368327241863	0.2757666666666666	-0.040000000000000036	0.5
864.7368327241863	0.27689999999999987	-0.04013333333333337	0.5
863.9485185538917	0.21996666666666664	-0.040000000000000036	0.5
863.9537526491087	0.2004333333333333	-0.040000000000000036	0.5
863.6860453981244	0.19309999999999994	-0.04013333333333337	0.5
863.6860453981244	0.17929999999999993	-0.03960000000000003	0.5
863.7341562027935	0.1769666666666666	-0.038266666666666706	0.5
863.7341562027935	0.10933333333333328	-0.037333333333333364	0.5
863.7341562027935	0.07913333333333329	-0.038800000000000036	0.5
862.2964611819181	0.07476666666666662	-0.03960000000000003	0.5
862.4005239488721	0.060666666666666605	-0.040000000000000036	0.5
862.2416154619146	0.05383333333333327	-0.0398666666666667	0.5
862.2416154619146	0.04313333333333325	-0.038000000000000034	0.5
860.855799772041	0.04313333333333325	0.038800000000000036	0.5
860.8589481703979	0.02133333333333324	0.04213333333333337	0.5
860.8589481703979	0.022266666666666577	0.04213333333333337	0.5
860.7425523128877	0.02113333333333324	0.042533333333333374	0.5
860.7425905411853	0.021499999999999908	0.043733333333333374	0.5
860.7425905411853	0.022366666666666576	0.0438666666666667	0.5
860.5287199092578	0.028133333333333243	0.07186666666666672	0.5
860.5287199092578	0.02979999999999992	0.11413333333333343	0.5
860.3065797973869	0.030199999999999918	0.1470666666666668	0.5
860.3065797973869	0.03126666666666658	0.1649333333333335	0.5
860.1975579454609	0.03673333333333326	0.1916000000000002	0.5
860.1945728754991	0.03673333333333326	0.18640000000000015	0.5
860.1945728754991	0.034533333333333256	0.2036000000000002	0.5
859.86787720379	0.03383333333333325	0.2036000000000002	0.5
859.9130225405206	0.04203333333333326	0.2681333333333336	0.5
858.6582392065311	0.052533333333333265	0.3153333333333336	0.5
858.6582392065311	0.15559999999999993	1.3462666666666667	0.5
858.5527227820287	0.2591666666666666	2.3848000000000003	0.5
858.4412382284937	0.29163333333333324	2.7542666666666666	0.5
858.4412382284937	0.3329999999999999	3.2124	0.5
858.3340745451143	0.3765333333333332	3.6629333333333336	0.5
857.0184986847479	0.4343333333333332	4.324666666666667	0.5
857.0184986847479	0.8622333333333332	7.528266666666667	0.5
856.9125154216101	0.8622333333333332	7.521066666666666	0.5
856.911838554662	0.8636666666666666	7.5203999999999995	0.5
856.911838554662	0.8060999999999999	7.5203999999999995	0.5
856.911838554662	0.7158333333333333	7.52	0.5
856.5831976561319	0.6936333333333332	7.519733333333334	0.5
856.5835010968241	0.7205666666666666	7.520133333333333	0.5
856.5835010968241	0.7333333333333334	7.52	0.5
856.585731740733	0.7341333333333334	7.52	0.5
856.3114612988226	0.7041666666666667	7.520133333333333	0.5
856.257249175445	0.6999666666666666	7.52	0.5
856.257249175445	0.6898333333333333	7.519066666666666	0.5
856.15212140936	0.6687	7.512666666666667	0.5
856.1451775485892	0.6687	7.502133333333334	0.5
856.1451775485892	0.6083999999999999	7.4952	0.5
856.0403164099457	0.6028666666666666	7.4952	0.5
855.7096998365568	0.5898999999999999	7.499066666666668	0.5
854.736460596518	0.5563333333333332	7.5172	0.5
854.736460596518	0.4153666666666666	7.5196000000000005	0.5
854.7344231170383	0.3946666666666666	7.517866666666666	0.5
854.5139107283693	0.37396666666666656	7.516000000000001	0.5
854.5139107283693	0.3496999999999999	7.513066666666667	0.5
854.4092267348217	0.3330666666666665	7.503466666666666	0.5
854.4050547888443	0.32493333333333324	7.492533333333334	0.5
854.4050547888443	0.32493333333333324	7.498266666666667	0.5
853.3268944209278	0.32333333333333325	7.498266666666667	0.5
853.3268944209278	0.2876999999999999	7.519733333333334	0.5
853.3268944209278	0.27206666666666657	7.5184000000000015	0.5
853.3268944209278	0.2693666666666666	7.517733333333332	0.5
852.8948283662635	0.2597333333333332	7.518533333333333	0.5
852.6743556231152	0.2558333333333333	7.519333333333334	0.5
852.6743556231152	0.24156666666666665	7.517866666666667	0.5
852.6728977048103	0.24266666666666667	7.5188000000000015	0.5
852.5702184985162	0.24353333333333335	7.519066666666666	0.5
852.3537043657566	0.23886666666666664	7.5192000000000005	0.5
852.3537043657566	0.23886666666666664	7.518933333333334	0.5
852.134852377489	0.23466666666666663	7.515599999999999	0.5
852.1347409472394	0.21323333333333333	7.515599999999999	0.5
852.1347409472394	0.20426666666666662	7.505599999999999	0.5
852.0281855544936	0.21063333333333328	7.515999999999999	0.5
850.950610441494	0.20099999999999996	7.518133333333333	0.5
850.9496328568332	0.1804666666666666	7.514133333333333	0.5
850.9496328568332	0.1815333333333333	7.5172	0.5
850.6356058438257	0.18013333333333326	7.515599999999999	0.5
850.6356224717072	0.17933333333333326	7.515999999999999	0.5
850.6356224717072	0.17583333333333329	7.5157333333333325	0.5
850.3092240630054	0.17583333333333329	7.513066666666667	0.5
849.4519101642959	0.17153333333333326	7.515066666666667	0.5
849.4519101642959	0.15976666666666658	7.515066666666667	0.5
849.340988655596	0.16206666666666658	7.5168	0.5
849.2429664621569	0.1535666666666666	7.508133333333333	0.5
849.2429664621569	0.14589999999999992	7.4981333333333335	0.5
849.2429664621569	0.14146666666666657	7.4952	0.5
848.8080957340052	0.14073333333333324	7.4922666666666675	0.5
848.808000122188	0.13746666666666654	7.487999999999999	0.5
848.808000122188	0.14296666666666658	7.505333333333333	0.5
848.7016643619144	0.14703333333333324	7.5123999999999995	0.5
848.4786231713839	0.14703333333333324	7.511466666666667	0.5
848.378316188871	0.14563333333333323	7.500666666666666	0.5
848.378316188871	0.12766666666666657	7.500666666666666	0.5
848.2737972205761	0.12963333333333324	7.500266666666667	0.5
848.0594971146812	0.12513333333333324	7.487866666666667	0.5
848.0594971146812	0.12449999999999989	7.487066666666668	0.5
847.097476835696	0.11893333333333321	7.480933333333333	0.5
847.0974185563286	0.10246666666666653	7.48	0.5
847.0974185563286	0.10039999999999988	7.48	0.5
847.0974353891473	0.10146666666666654	7.48	0.5
846.673714526332	0.10799999999999987	7.48	0.5
846.669027499276	0.10799999999999987	7.4984	0.5
846.669027499276	0.1163333333333332	7.502800000000001	0.5
845.8248594331546	0.11903333333333321	7.502800000000001	0.5
845.4937931000554	0.10169999999999987	7.480533333333333	0.5
845.4937931000554	0.10003333333333321	7.484000000000001	0.5
845.289596906346	0.09999999999999985	7.482266666666668	0.5
845.288849272361	0.09996666666666654	7.480133333333333	0.5
845.288849272361	0.09986666666666653	7.480266666666666	0.5
844.9736695912453	0.09969999999999987	7.480266666666666	0.5
844.6554310766094	0.0998333333333332	7.480266666666666	0.5
844.6585556589459	0.0998333333333332	7.485466666666667	0.5
844.6585556589459	0.0998333333333332	7.4922666666666675	0.5
844.556439120612	0.09999999999999985	7.481866666666667	0.5
844.1260096970609	0.09949999999999988	7.481866666666667	0.5
844.1260096970609	0.09846666666666655	7.480933333333334	0.5
844.2277976703658	0.09563333333333322	7.48	0.5
843.3854336556944	0.0952999999999999	7.4807999999999995	0.5
843.3854336556944	0.09083333333333324	7.48	0.5
843.1690356975782	0.08976666666666659	7.48	0.5
842.9573042506103	0.09363333333333324	7.4807999999999995	0.5
842.9682278144619	0.08803333333333327	7.480133333333333	0.5
842.9682278144619	0.09049999999999991	7.4803999999999995	0.5
842.2287414323928	0.09049999999999991	7.480533333333333	0.5
841.9084832998279	0.08816666666666659	7.48	0.5
841.9084832998279	0.08136666666666661	7.48	0.5
841.6006517968231	0.08099999999999996	7.48	0.5
841.3791222450237	0.08193333333333327	7.480133333333333	0.5
841.1744706930176	0.08529999999999995	7.4803999999999995	0.5
841.1744706930176	0.08179999999999996	7.48	0.5
841.1717217981981	0.08016666666666664	7.48	0.5
840.9640247934202	0.07986666666666663	7.479866666666667	0.5
840.9640247934202	0.07996666666666663	7.478666666666668	0.5
840.8611938050809	0.07999999999999995	7.48	0.5
840.4342060056921	0.0798333333333333	7.478533333333333	0.5
840.4342060056921	0.0798333333333333	7.448533333333332	0.5
840.4334211283021	0.0777333333333333	7.441999999999999	0.5
839.9094404915105	0.0773333333333333	7.441999999999999	0.5
839.4905618455399	0.0792333333333333	7.479466666666667	0.5
839.4905618455399	0.07999999999999995	7.48	0.5
839.3964404558868	0.08003333333333329	7.48	0.5
838.962050244395	0.07943333333333329	7.479733333333334	0.5
838.962050244395	0.07813333333333329	7.470133333333333	0.5
838.8668271036901	0.07993333333333329	7.48	0.5
838.818630564582	0.07986666666666663	7.48	0.5
838.2305264976445	0.07993333333333329	7.48	0.5
838.2305264976445	0.07556666666666663	7.465066666666667	0.5
837.8242560802488	0.07556666666666663	7.48	0.5
837.7137265948766	0.07949999999999996	7.473599999999999	0.5
837.7137265948766	0.07576666666666663	7.473599999999999	0.5
837.5137908957662	0.07889999999999996	7.48	0.5
837.5064548590655	0.08003333333333328	7.48	0.5
837.4119272938137	0.07999999999999995	7.48	0.5
837.4119272938137	0.07739999999999995	7.478933333333333	0.5
837.0893089587973	0.07253333333333328	7.459466666666668	0.5
836.6739725981458	0.07369999999999995	7.4665333333333335	0.5
836.6739725981458	0.07393333333333328	7.472266666666668	0.5
836.5695380854206	0.07623333333333328	7.48	0.5
836.574948446765	0.06849999999999995	7.447866666666665	0.5
836.574948446765	0.06849999999999995	7.4552	0.5
835.7419856399171	0.07116666666666663	7.4552	0.5
835.843182424594	0.06909999999999995	7.455066666666666	0.5
835.7396660748901	0.06696666666666662	7.440799999999999	0.5
835.7396660748901	0.06846666666666662	7.441466666666665	0.5
835.3241825081217	0.07269999999999996	7.479333333333334	0.5
835.2691222297174	0.07299999999999995	7.478266666666666	0.5
835.2691222297174	0.07116666666666663	7.472133333333333	0.5
834.9569532707604	0.06826666666666661	7.444266666666666	0.5
834.4967100109515	0.06813333333333328	7.448799999999999	0.5
834.4967100109515	0.06883333333333329	7.457866666666667	0.5
834.294557866146	0.06883333333333329	7.4772	0.5
833.8878980482345	0.06873333333333329	7.4772	0.5
833.8784678437924	0.07049999999999995	7.479733333333334	0.5
833.8784678437924	0.06273333333333328	7.442799999999997	0.5
833.8784678437924	0.05586666666666661	7.428266666666665	0.5
833.3685562546725	0.06296666666666662	7.4468	0.5
833.3685562546725	0.061266666666666615	7.4429333333333325	0.5
832.9524324705501	0.05863333333333327	7.441333333333332	0.5
832.9536538943242	0.0626666666666666	7.447866666666665	0.5
832.6424618417794	0.06679999999999996	7.465600000000001	0.5
832.6424618417794	0.06819999999999994	7.479066666666667	0.5
832.6425398319911	0.06819999999999994	7.479733333333334	0.5
832.2296997896448	0.06959999999999997	7.479733333333334	0.5
832.2296997896448	0.060633333333333275	7.450400000000001	0.5
831.9199848241208	0.055733333333333274	7.4392	0.5
831.7210660042551	0.0522666666666666	7.419599999999999	0.5
831.7210660042551	0.04769999999999993	7.399999999999999	0.5
831.5112043912005	0.04939999999999993	7.400133333333332	0.5
831.2068436692438	0.06003333333333328	7.444666666666666	0.5
831.2034712002592	0.05689999999999993	7.444266666666666	0.5
831.2034712002592	0.0509666666666666	7.435599999999999	0.5
830.4865794737601	0.05329999999999994	7.440799999999999	0.5
830.3865889306393	0.05329999999999994	7.4664	0.5
830.3865889306393	0.06086666666666661	7.4664	0.5
830.3906198781627	0.058766666666666606	7.4475999999999996	0.5
829.9800396485186	0.058066666666666614	7.446666666666666	0.5
829.9800396485186	0.05623333333333327	7.4456	0.5
829.4660890423123	0.05533333333333327	7.4417333333333335	0.5
829.366514343441	0.05209999999999994	7.440266666666666	0.5
829.3623067607449	0.0540666666666666	7.443066666666667	0.5
829.3623067607449	0.050166666666666596	7.4352	0.5
829.2573530833373	0.04739999999999993	7.403066666666667	0.5
829.2573530833373	0.0475666666666666	7.417466666666666	0.5
829.2573530833373	0.0475666666666666	7.477200000000001	0.5
828.8502963495815	0.060799999999999944	7.477200000000001	0.5
828.3472481159187	0.04849999999999993	7.440666666666666	0.5
828.0368004984473	0.04969999999999993	7.442533333333333	0.5
828.0368004984473	0.05696666666666661	7.4772	0.5
828.0315545417036	0.061899999999999955	7.479866666666667	0.5
827.8332558068557	0.05256666666666661	7.4628000000000005	0.5
827.8332558068557	0.04823333333333327	7.443866666666666	0.5
827.8332558068557	0.04443333333333326	7.4201333333333315	0.5
826.8162548548169	0.04689999999999993	7.4366666666666665	0.5
826.8162548548169	0.0470666666666666	7.435599999999999	0.5
826.8144023318881	0.0470666666666666	7.399999999999999	0.5
826.1115754713026	0.04183333333333325	7.399999999999999	0.5
825.8074188405798	0.03983333333333326	7.399999999999999	0.5
825.8074188405798	0.04019999999999992	7.399999999999999	0.5
825.8068243232929	0.040333333333333256	7.399999999999999	0.5
825.8068243232929	0.041033333333333255	7.401199999999999	0.5
825.8068243232929	0.043066666666666586	7.436799999999998	0.5
825.4023983474276	0.0486666666666666	7.443733333333333	0.5
825.305214571316	0.04529999999999993	7.4448	0.5
824.9992069198237	0.045599999999999925	7.442133333333332	0.5
824.9992069198237	0.03989999999999993	7.399999999999999	0.5
824.9965475344696	0.03989999999999993	7.399999999999999	0.5
824.3853788865968	0.03873333333333325	7.399999999999999	0.5
824.3853788865968	0.03893333333333326	7.399999999999999	0.5
824.3853788865968	0.039499999999999924	7.399999999999999	0.5
823.9209811026009	0.04013333333333326	7.423333333333333	0.5
823.9209811026009	0.04016666666666659	7.410399999999999	0.5
823.7872042853184	0.043366666666666595	7.441999999999998	0.5
823.4759406124074	0.04466666666666659	7.457466666666666	0.5
823.4759406124074	0.046433333333333264	7.455866666666667	0.5
823.4759406124074	0.04673333333333326	7.462133333333333	0.5
822.4793404763957	0.04009999999999992	7.431733333333332	0.5
822.4765218809589	0.03973333333333326	7.426666666666665	0.5
822.4765218809589	0.03973333333333326	7.442266666666666	0.5
822.4765218809589	0.04076666666666659	7.442266666666666	0.5
822.1766646213214	0.04109999999999992	7.443999999999999	0.5
821.8714609753852	0.04013333333333326	7.430666666666666	0.5
821.8714609753852	0.03673333333333326	7.399999999999999	0.5
821.9255290431505	0.036399999999999925	7.399999999999999	0.5
821.7777450372766	0.03563333333333325	7.4	0.5
821.7777450372766	0.034033333333333256	7.312266666666668	0.5
821.7777450372766	0.03503333333333326	7.299200000000001	0.5
821.5348441605515	0.035899999999999925	7.399999999999999	0.5
821.083732010992	0.03956666666666659	7.438533333333331	0.5
821.083732010992	0.03956666666666659	7.439599999999999	0.5
820.7812429655208	0.03853333333333326	7.427733333333332	0.5
820.8733038490252	0.03919999999999992	7.427733333333332	0.5
820.8733038490252	0.038833333333333254	7.415733333333333	0.5
820.3753695167876	0.032833333333333256	7.375733333333333	0.5
