wavelength(nm)	flourescence PMT(V)	ti_saph Power (V)	Gain (V)
750.2388722197776	0.4248666666666666	4.132133333333333	1.0
750.2388722197776	0.4254333333333332	3.9990666666666677	1.0
750.5725098225349	0.43383333333333324	4.209066666666668	1.0
750.5725098225349	0.4321333333333333	4.288	1.0
750.5725098225349	0.4321333333333333	4.2332	1.0
751.0682488926077	0.4205999999999999	4.377466666666668	1.0
751.0682488926077	0.45309999999999984	4.377466666666668	1.0
751.0682703638198	0.4609666666666665	4.436000000000001	1.0
751.0682703638198	0.44599999999999995	4.411333333333334	1.0
751.0682703638198	0.43859999999999993	4.293866666666667	1.0
751.4038577211198	0.4202999999999999	4.066266666666667	1.0
751.4038577211198	0.3972666666666666	3.9018666666666664	1.0
751.7378169151748	0.41956666666666664	4.212666666666667	1.0
751.7378169151748	0.41739999999999994	4.231600000000001	1.0
751.7378169151748	0.42136666666666667	4.2350666666666665	1.0
752.1531844332407	0.45883333333333326	4.561999999999999	1.0
752.1531844332407	0.45883333333333326	4.677333333333333	1.0
752.1559562249848	0.4577333333333332	4.583466666666666	1.0
752.1559562249848	0.4598666666666666	4.583466666666666	1.0
752.9063979274705	0.40683333333333327	4.091733333333333	1.0
752.9063979274705	0.4127999999999999	4.0816	1.0
752.9063979274705	0.4089	4.158933333333333	1.0
753.160456461331	0.41443333333333326	4.154666666666667	1.0
753.160456461331	0.41849999999999987	4.1036	1.0
753.2421755304619	0.39036666666666664	3.9274666666666667	1.0
753.2421755304619	0.4118333333333333	4.097066666666667	1.0
753.2421755304619	0.42303333333333326	4.272666666666667	1.0
753.5796747873738	0.42119999999999996	4.293733333333333	1.0
753.5796747873738	0.42119999999999996	4.179866666666666	1.0
753.997896436235	0.41889999999999994	4.463733333333333	1.0
753.997896436235	0.43609999999999993	4.463733333333333	1.0
753.997896436235	0.4401666666666666	4.516266666666667	1.0
753.9975785961825	0.4328666666666666	4.5108	1.0
753.9975785961825	0.40869999999999995	4.189466666666667	1.0
754.3348418938573	0.3852999999999999	3.8808000000000002	1.0
754.3348418938573	0.38199999999999995	3.925866666666666	1.0
754.3348418938573	0.3949333333333333	4.155333333333334	1.0
755.0914536454962	0.42549999999999993	4.482400000000001	1.0
755.0914536454962	0.41143333333333326	4.400800000000001	1.0
755.4293566366165	0.3863666666666666	3.959199999999999	1.0
755.4293566366165	0.3863666666666666	3.899466666666666	1.0
755.8501941253014	0.37856666666666666	3.9502666666666664	1.0
755.8501941253014	0.3665999999999999	3.9502666666666664	1.0
755.8501941253014	0.3750333333333333	3.9925333333333333	1.0
755.8362115241397	0.41489999999999994	4.378933333333334	1.0
755.8362115241397	0.41289999999999993	4.3324	1.0
756.527250218312	0.3969666666666666	4.2204	1.0
756.527250218312	0.3867666666666666	4.1984	1.0
756.527250218312	0.39146666666666663	4.196266666666666	1.0
756.6103682012795	0.3693333333333333	3.9657333333333336	1.0
756.6103682012795	0.3887333333333333	4.230933333333334	1.0
756.9485866949753	0.40969999999999995	4.494	1.0
756.9485866949753	0.40969999999999995	4.490399999999999	1.0
756.9485866949753	0.41426666666666656	4.490399999999999	1.0
756.947758127594	0.41373333333333323	4.429866666666666	1.0
756.947758127594	0.4147999999999999	4.3992	1.0
757.2060884713607	0.3811666666666666	4.118533333333334	1.0
757.2060884713607	0.3665999999999999	3.9548	1.0
757.2060884713607	0.3668333333333333	3.9220000000000006	1.0
757.2874240914617	0.3792999999999999	4.093066666666667	1.0
757.2874240914617	0.4100333333333333	4.408933333333333	1.0
757.3701390772849	0.41419999999999996	4.5992	1.0
757.3701390772849	0.4012333333333333	4.520533333333334	1.0
757.3708137422612	0.4012333333333333	4.408400000000001	1.0
757.3708137422612	0.40256666666666663	4.475066666666667	1.0
757.3708137422612	0.4045666666666666	4.475066666666667	1.0
758.0503465425159	0.3971999999999999	4.476000000000001	1.0
758.0503465425159	0.38939999999999997	4.4976	1.0
762.4237275422985	0.4047666666666666	4.512133333333334	1.0
762.4237275422985	0.40859999999999996	4.5864	1.0
762.4237275422985	0.40879999999999994	4.6264	1.0
762.4237275422985	0.4014666666666666	4.5484	1.0
762.4237275422985	0.40719999999999995	4.6324000000000005	1.0
762.0671383569567	0.4089666666666666	4.689466666666667	1.0
762.0671383569567	0.41409999999999997	4.7161333333333335	1.0
762.0671383569567	0.41409999999999997	4.673866666666667	1.0
762.0671383569567	0.40066666666666656	4.6248000000000005	1.0
762.0671383569567	0.40959999999999996	4.6248000000000005	1.0
762.2311638027966	0.3905666666666666	4.516266666666667	1.0
762.2311638027966	0.3676999999999999	4.250533333333333	1.0
762.2311638027966	0.36113333333333325	4.131866666666666	1.0
762.4143059235988	0.36909999999999993	4.200399999999999	1.0
762.4143059235988	0.38373333333333326	4.414933333333334	1.0
762.838683335669	0.3976666666666666	4.622666666666667	1.0
762.838683335669	0.3973666666666666	4.671066666666667	1.0
762.8395053625857	0.4003666666666666	4.692266666666668	1.0
762.8395053625857	0.3969666666666666	4.736666666666666	1.0
762.8395053625857	0.3969666666666666	4.735200000000001	1.0
763.9592461039055	0.40336666666666665	4.735200000000001	1.0
763.9592461039055	0.40369999999999995	4.801866666666666	1.0
763.9555392428482	0.42203333333333326	5.019733333333334	1.0
763.9555392428482	0.43146666666666655	5.08	1.0
763.9555392428482	0.4308666666666666	5.092533333333333	1.0
763.9555392428482	0.41706666666666664	4.938933333333334	1.0
763.9555392428482	0.38346666666666657	4.471333333333334	1.0
764.9036613172054	0.4051333333333333	4.9108	1.0
764.9036613172054	0.44116666666666654	5.368666666666666	1.0
764.9036613172054	0.45076666666666665	5.479866666666667	1.0
764.9052100270742	0.45076666666666665	5.480266666666667	1.0
764.9052100270742	0.45583333333333326	5.4268	1.0
764.9027828104425	0.4594999999999999	5.4268	1.0
764.9027828104425	0.4299333333333333	5.174133333333334	1.0
765.5145743008874	0.38323333333333326	4.7951999999999995	1.0
765.5145743008874	0.38696666666666657	4.661466666666667	1.0
765.5145743008874	0.3879999999999999	4.6368	1.0
765.5116581690984	0.37789999999999996	4.6294666666666675	1.0
765.5116581690984	0.39706666666666657	4.797733333333334	1.0
765.8634683335964	0.4113666666666666	4.97	1.0
765.8634683335964	0.4138333333333333	5.064933333333333	1.0
765.8634683335964	0.4138333333333333	5.142400000000001	1.0
765.9433519254533	0.4043999999999999	5.165066666666666	1.0
765.9433519254533	0.4234333333333333	5.165066666666666	1.0
766.0649957273287	0.4274333333333332	5.1037333333333335	1.0
766.0649957273287	0.41239999999999993	4.928266666666667	1.0
767.0749133078668	0.4095333333333333	5.1792	1.0
767.0749133078668	0.4172666666666666	5.1916	1.0
767.0749133078668	0.4325333333333333	5.285333333333333	1.0
767.0772290687312	0.4120666666666666	5.190133333333333	1.0
767.0772290687312	0.41936666666666655	5.1568	1.0
767.0772290687312	0.4258666666666666	5.371333333333333	1.0
767.0772290687312	0.43876666666666664	5.401199999999999	1.0
767.0772290687312	0.43876666666666664	5.385333333333333	1.0
767.9409732952251	0.43589999999999995	5.364533333333332	1.0
767.9409732952251	0.41753333333333326	5.364533333333332	1.0
768.2080676889065	0.37809999999999994	4.849200000000001	1.0
768.2080676889065	0.39883333333333326	5.084133333333333	1.0
768.2080676889065	0.4088666666666666	4.982933333333333	1.0
768.6437996778075	0.37873333333333326	4.792933333333334	1.0
768.6437996778075	0.3744333333333333	4.6828	1.0
768.9929329287027	0.3765333333333333	4.8252	1.0
768.9929329287027	0.40263333333333323	5.239866666666667	1.0
769.0767421174734	0.39173333333333327	5.037733333333334	1.0
769.0767421174734	0.3875333333333333	4.9577333333333335	1.0
769.0767421174734	0.3875333333333333	4.9992	1.0
769.0767126256712	0.3977666666666666	4.9992	1.0
769.0767126256712	0.3915666666666666	5.004666666666667	1.0
769.4285861333477	0.3697666666666666	4.627466666666667	1.0
769.4285861333477	0.4199333333333333	5.2428	1.0
769.4285861333477	0.41913333333333325	5.388933333333333	1.0
770.2148983226949	0.3899999999999999	5.0309333333333335	1.0
770.2148983226949	0.3680666666666666	4.8209333333333335	1.0
770.9203446048724	0.4012666666666666	5.1496	1.0
770.9203446048724	0.3830333333333332	5.0549333333333335	1.0
770.9203446048724	0.373	5.011733333333333	1.0
771.0060694828204	0.373	4.9417333333333335	1.0
771.0060694828204	0.3844333333333333	5.278133333333334	1.0
771.7089390787144	0.41009999999999996	5.278133333333334	1.0
771.7089390787144	0.3779666666666666	4.920266666666667	1.0
771.9790430790287	0.3617666666666666	4.7456000000000005	1.0
771.9790430790287	0.3673999999999999	4.7116	1.0
771.9790430790287	0.4147999999999999	5.281199999999999	1.0
772.1502334552669	0.4092333333333333	5.349333333333333	1.0
772.1502334552669	0.3765666666666666	4.986000000000001	1.0
772.1517832504555	0.3822333333333333	4.993866666666667	1.0
772.1517832504555	0.38643333333333324	4.988	1.0
772.1517832504555	0.3606999999999999	4.7012	1.0
773.2966315245034	0.3606999999999999	5.213333333333333	1.0
773.2966315245034	0.3946999999999999	5.247333333333334	1.0
773.2966406432574	0.4050333333333333	5.247333333333334	1.0
773.2966406432574	0.39296666666666663	5.2416	1.0
773.6539174466413	0.38649999999999995	4.998933333333333	1.0
773.6539174466413	0.3784666666666666	4.9344	1.0
773.6539174466413	0.37663333333333326	5.018533333333333	1.0
774.0069484289371	0.38036666666666663	5.116533333333334	1.0
774.0069484289371	0.4044	5.2052	1.0
774.3642576577697	0.39679999999999993	5.216	1.0
774.3642576577697	0.3935333333333333	5.2252	1.0
774.3642576577697	0.38073333333333326	5.069333333333334	1.0
774.8062434385473	0.38073333333333326	4.969600000000001	1.0
774.8062434385473	0.3773333333333333	5.0088	1.0
775.1599021345118	0.37276666666666664	5.0088	1.0
775.1599021345118	0.419	5.6921333333333335	1.0
775.2500915819918	0.4194666666666666	5.771066666666667	1.0
775.2500915819918	0.40676666666666655	5.3796	1.0
775.2500915819918	0.40659999999999996	5.252266666666666	1.0
775.245888602986	0.38959999999999995	5.3162666666666665	1.0
775.245888602986	0.3946333333333333	5.2036	1.0
775.516129744336	0.3698666666666666	4.9189333333333325	1.0
775.516129744336	0.36616666666666664	4.922133333333333	1.0
775.516129744336	0.40676666666666655	5.4694666666666665	1.0
776.404283652699	0.40676666666666655	5.665333333333333	1.0
776.404283652699	0.41793333333333327	5.665333333333333	1.0
776.765263878884	0.3972666666666666	5.358933333333334	1.0
776.765263878884	0.3969	5.183999999999999	1.0
776.765263878884	0.3786333333333333	5.004133333333334	1.0
776.849519805351	0.39196666666666663	5.081200000000001	1.0
776.849519805351	0.43173333333333325	5.578666666666666	1.0
777.4843258702853	0.4271999999999999	5.599199999999999	1.0
777.4843258702853	0.43146666666666667	5.605733333333332	1.0
777.9243803648185	0.42863333333333326	5.714266666666666	1.0
777.9243803648185	0.40306666666666663	5.350266666666666	1.0
777.9243803648185	0.40306666666666663	5.259066666666667	1.0
778.284877617486	0.4054999999999999	5.696666666666666	1.0
778.284877617486	0.43119999999999997	5.696666666666666	1.0
778.2848585092125	0.4425666666666666	5.899733333333333	1.0
778.2848585092125	0.43083333333333335	5.776400000000001	1.0
778.2848585092125	0.41729999999999995	5.7188	1.0
778.5579251302788	0.42189999999999994	5.629333333333333	1.0
778.5579251302788	0.4205999999999999	5.645066666666667	1.0
778.643299792857	0.39359999999999995	5.297466666666667	1.0
778.643299792857	0.39599999999999996	5.2013333333333325	1.0
778.643299792857	0.41459999999999997	5.400399999999999	1.0
779.7251302256905	0.4601333333333333	6.1088000000000005	1.0
779.7251302256905	0.4601333333333333	5.955333333333333	1.0
779.9006029335125	0.4483333333333333	5.6306666666666665	1.0
779.9006029335125	0.4324666666666665	5.6306666666666665	1.0
780.2627540123617	0.4567666666666666	5.873733333333333	1.0
780.2627540123617	0.4721333333333333	6.1341333333333345	1.0
780.2627540123617	0.45109999999999995	5.905999999999999	1.0
781.0675218725843	0.45143333333333335	5.746533333333333	1.0
781.0675218725843	0.42106666666666664	5.500933333333334	1.0
781.3462605650979	0.4496	5.775466666666667	1.0
781.3462605650979	0.47436666666666666	6.250666666666666	1.0
781.3462605650979	0.47919999999999996	6.400133333333335	1.0
781.4360454995276	0.47919999999999996	6.0072	1.0
781.4360454995276	0.4726666666666666	5.480800000000001	1.0
781.5222637577158	0.42653333333333326	5.480800000000001	1.0
781.5222637577158	0.4296666666666666	5.483733333333333	1.0
781.7960954076327	0.4242666666666666	5.545866666666666	1.0
781.7960954076327	0.4277	5.461066666666667	1.0
781.7960954076327	0.4168333333333333	5.3544	1.0
782.8849357459918	0.4738333333333333	6.0894666666666675	1.0
782.8849357459918	0.4969999999999999	6.2303999999999995	1.0
783.0618876514252	0.4556666666666666	5.822133333333333	1.0
783.0618876514252	0.46169999999999994	5.847599999999999	1.0
783.0618876514252	0.5162666666666667	6.519733333333332	1.0
783.3364901393801	0.5162666666666667	6.4446666666666665	1.0
783.3364901393801	0.5154	5.566933333333333	1.0
783.3364901393801	0.4423666666666666	5.566933333333333	1.0
783.3364901393801	0.47199999999999986	5.783733333333333	1.0
783.3364901393801	0.4571333333333333	5.647733333333332	1.0
784.5216489513352	0.4823999999999999	5.928266666666667	1.0
784.5216489513352	0.5230666666666666	6.481733333333334	1.0
784.6075100697859	0.5161666666666666	6.316933333333333	1.0
784.6075100697859	0.48579999999999995	6.042133333333333	1.0
784.8843539366924	0.4892333333333333	6.039066666666666	1.0
784.8843539366924	0.49363333333333337	5.960799999999999	1.0
784.8843539366924	0.49363333333333337	5.7338666666666676	1.0
784.8825456752346	0.4700333333333333	5.762933333333334	1.0
784.8825456752346	0.4720666666666667	5.762933333333334	1.0
784.9730559833324	0.4642333333333333	5.656799999999999	1.0
784.9730559833324	0.4678999999999999	5.596933333333332	1.0
784.9730559833324	0.5254333333333333	6.156133333333334	1.0
786.0708657986046	0.5227333333333332	6.2128	1.0
786.0708657986046	0.5181999999999999	5.9879999999999995	1.0
786.2486145892002	0.4895666666666667	5.6433333333333335	1.0
786.2486145892002	0.5165333333333333	6.0557333333333325	1.0
787.1736623332982	0.5481666666666666	6.3984	1.0
787.1736623332982	0.5429666666666666	6.1384	1.0
787.1736623332982	0.5429666666666666	5.8208	1.0
787.3522624064664	0.5209666666666666	5.563866666666666	1.0
787.3522624064664	0.49549999999999994	5.563866666666666	1.0
787.3522624064664	0.5588333333333333	6.163733333333333	1.0
787.3522624064664	0.6038333333333332	6.564400000000001	1.0
787.3522624064664	0.5987666666666667	6.6192	1.0
787.8073214990234	0.6114666666666666	6.595866666666667	1.0
787.8073214990234	0.5717666666666665	6.0992	1.0
787.9992750821269	0.5687666666666665	6.055733333333333	1.0
787.9992750821269	0.5589	5.951733333333333	1.0
787.9992750821269	0.5456666666666666	5.736000000000001	1.0
788.0893068692037	0.5456666666666666	5.669866666666666	1.0
788.0893068692037	0.5377333333333333	5.660266666666667	1.0
788.1786854733062	0.5326333333333332	5.660266666666667	1.0
788.1786854733062	0.5513666666666667	5.8004	1.0
789.284790331677	0.5883666666666666	6.0793333333333335	1.0
789.284790331677	0.6163333333333333	5.969600000000001	1.0
789.284790331677	0.6218333333333332	5.9058666666666655	1.0
789.6558792442979	0.6325333333333333	6.007199999999999	1.0
789.6558792442979	0.7274333333333332	6.795733333333333	1.0
789.695280261196	0.7168666666666667	6.7512	1.0
789.695280261196	0.7863	6.428800000000001	1.0
789.695280261196	0.8124333333333332	6.107599999999999	1.0
787.7196913775298	0.5701666666666666	6.1419999999999995	1.0
787.7196913775298	0.5868666666666666	6.448666666666668	1.0
787.7196913775298	0.5834999999999999	6.415733333333335	1.0
787.7196913775298	0.6070333333333333	6.519733333333334	1.0
787.7196913775298	0.6070333333333333	5.992533333333332	1.0
787.3503658698058	0.5496999999999999	5.992533333333332	1.0
787.3503658698058	0.5192666666666665	5.728133333333333	1.0
786.6164628470885	0.5367999999999998	5.8512	1.0
786.6164628470885	0.5050333333333333	5.868799999999999	1.0
786.6164628470885	0.4949999999999999	5.8049333333333335	1.0
786.2486555065948	0.5395333333333332	6.271066666666666	1.0
786.2486555065948	0.5356333333333332	6.257866666666667	1.0
786.071541235696	0.5359666666666666	6.246666666666667	1.0
786.071541235696	0.5350666666666666	6.395733333333334	1.0
786.0724282435996	0.5539666666666666	6.4261333333333335	1.0
786.0724282435996	0.5539666666666666	6.015466666666667	1.0
786.0724282435996	0.5113999999999999	5.699466666666667	1.0
784.9750531269926	0.46639999999999987	5.699466666666667	1.0
784.9750531269926	0.4598666666666666	5.604399999999999	1.0
784.8810734417201	0.48879999999999996	5.964933333333334	1.0
784.8810734417201	0.4852999999999999	5.975466666666667	1.0
784.8810734417201	0.5027333333333334	6.042666666666667	1.0
784.6088545751618	0.5125	6.244133333333333	1.0
784.6088545751618	0.5089333333333332	6.282799999999999	1.0
784.609764842924	0.5052666666666666	6.213333333333333	1.0
784.609764842924	0.49389999999999984	6.024666666666667	1.0
784.609764842924	0.49389999999999984	5.918266666666666	1.0
784.2430149843947	0.4721999999999999	5.7514666666666665	1.0
784.2430149843947	0.47113333333333324	5.7514666666666665	1.0
784.2430149843947	0.47709999999999997	5.932266666666666	1.0
784.2430149843947	0.4704333333333332	5.807733333333334	1.0
783.3364237085616	0.5036666666666666	6.3056	1.0
783.3364237085616	0.5252999999999999	6.5972	1.0
783.3364237085616	0.4836666666666666	6.1116	1.0
783.3364237085616	0.4594666666666666	5.742	1.0
783.3364237085616	0.4579333333333333	5.8464	1.0
781.7992869559747	0.46	5.8764	1.0
781.7992869559747	0.43276666666666663	5.499199999999999	1.0
781.7992869559747	0.43276666666666663	6.0124	1.0
781.7069563985942	0.4653666666666666	6.0408	1.0
781.7069563985942	0.4776999999999999	6.0408	1.0
781.5211506946397	0.4522333333333332	5.893466666666666	1.0
781.5211506946397	0.4453999999999999	5.751733333333334	1.0
781.4321788638955	0.44689999999999996	5.739866666666667	1.0
781.4321788638955	0.4497666666666666	5.7476	1.0
781.4321788638955	0.45479999999999987	5.9092	1.0
781.3471688659131	0.4303999999999999	5.495733333333333	1.0
781.3471688659131	0.42149999999999993	5.402133333333333	1.0
781.0697717739483	0.4198666666666666	5.4292	1.0
781.0697717739483	0.4301333333333332	5.507066666666666	1.0
781.0697717739483	0.4301333333333332	5.363866666666667	1.0
780.2602126627381	0.4084666666666666	5.6790666666666665	1.0
780.2602126627381	0.4374999999999999	5.6790666666666665	1.0
778.9847697177032	0.43369999999999986	5.736266666666667	1.0
778.9847697177032	0.4248999999999999	5.556266666666667	1.0
779.72647675585	0.43613333333333326	5.700266666666667	1.0
779.72647675585	0.4355333333333332	5.728533333333334	1.0
779.72647675585	0.45179999999999987	5.888799999999999	1.0
778.6450593644404	0.41503333333333325	5.537466666666666	1.0
778.6450593644404	0.41553333333333325	5.566933333333332	1.0
778.5586358260456	0.4305999999999999	5.728933333333333	1.0
778.5586358260456	0.4565333333333333	6.006266666666667	1.0
778.5586358260456	0.4565333333333333	6.019733333333334	1.0
778.2852442955585	0.45849999999999985	5.9252	1.0
778.2852442955585	0.45019999999999993	5.9252	1.0
778.2858582122054	0.44113333333333327	5.877466666666666	1.0
778.2858582122054	0.4477333333333332	5.865733333333333	1.0
778.2858582122054	0.43389999999999995	5.739866666666667	1.0
777.9244660938265	0.4272666666666666	5.6996	1.0
777.9244660938265	0.4195	5.625733333333334	1.0
777.1218529446969	0.4049999999999999	5.308133333333333	1.0
777.1218529446969	0.4236666666666666	5.458666666666667	1.0
776.7637422929607	0.42599999999999993	5.7752	1.0
776.7637422929607	0.3917	5.204	1.0
776.7637422929607	0.3917	5.200799999999999	1.0
776.7616530170878	0.4021666666666666	5.200799999999999	1.0
776.7616530170878	0.42389999999999994	5.427733333333333	1.0
776.3199261056043	0.4260999999999999	5.728800000000001	1.0
776.3199261056043	0.40703333333333325	5.294533333333333	1.0
776.3199261056043	0.4044666666666666	5.2893333333333326	1.0
775.5165986635724	0.40733333333333327	5.402133333333333	1.0
775.5165986635724	0.4062333333333333	5.559466666666666	1.0
775.2481463296621	0.4443666666666667	5.878133333333333	1.0
775.2481463296621	0.4478333333333332	5.907999999999999	1.0
775.2481463296621	0.4271333333333333	5.677866666666667	1.0
775.2466740014873	0.4271333333333333	5.62	1.0
775.2466740014873	0.4214666666666666	5.62	1.0
774.8078955083831	0.41319999999999996	5.4774666666666665	1.0
774.8078955083831	0.41096666666666665	5.2548	1.0
774.8046945841976	0.4221	5.474933333333333	1.0
774.8046945841976	0.41653333333333326	5.3952	1.0
774.8046945841976	0.37483333333333324	5.157333333333334	1.0
774.006874740853	0.38483333333333325	5.207599999999999	1.0
774.006874740853	0.3915333333333333	5.225866666666667	1.0
773.6514157850138	0.39343333333333325	5.1732000000000005	1.0
773.6514157850138	0.39143333333333324	5.0952	1.0
773.6514157850138	0.39143333333333324	5.352533333333333	1.0
773.2969657262888	0.4059999999999999	5.552933333333333	1.0
773.2969657262888	0.4048666666666666	5.552933333333333	1.0
773.2969657262888	0.39206666666666656	5.1624	1.0
773.2969657262888	0.40383333333333327	5.240266666666667	1.0
772.1506593546072	0.4175666666666666	5.637199999999999	1.0
772.1506593546072	0.42363333333333325	5.660266666666666	1.0
772.1506593546072	0.41143333333333326	5.548266666666666	1.0
772.065431206482	0.3877666666666666	4.952133333333333	1.0
772.065431206482	0.3721666666666666	4.8328	1.0
771.7118510102788	0.3699666666666666	4.690266666666666	1.0
771.7118510102788	0.38803333333333323	5.221733333333333	1.0
771.7118510102788	0.38803333333333323	5.328	1.0
771.4440343491356	0.41156666666666664	5.328	1.0
771.4440343491356	0.38389999999999996	4.870800000000001	1.0
771.0062104481435	0.3605333333333332	4.6175999999999995	1.0
771.0062104481435	0.39813333333333334	5.188	1.0
771.0062104481435	0.3942666666666666	5.142266666666667	1.0
770.5694005890263	0.40903333333333325	5.233999999999999	1.0
770.5694005890263	0.3969666666666666	5.16	1.0
770.3376167793531	0.3975999999999999	5.067733333333334	1.0
770.3376167793531	0.38619999999999993	4.930933333333333	1.0
769.0221383201091	0.3973999999999999	5.0708	1.0
769.0221383201091	0.3973999999999999	5.005866666666667	1.0
769.0221383201091	0.38393333333333324	5.067866666666666	1.0
769.0798562044463	0.4038999999999999	5.067866666666666	1.0
769.0798562044463	0.4230999999999999	5.4261333333333335	1.0
769.0766128644028	0.4415333333333333	5.711733333333333	1.0
769.0766128644028	0.4457333333333333	5.718800000000001	1.0
769.0766128644028	0.4123999999999999	5.325066666666666	1.0
769.0766128644028	0.3814999999999999	4.7728	1.0
769.0766128644028	0.42579999999999996	5.2632	1.0
768.6436936231928	0.41503333333333325	5.327333333333334	1.0
768.6436936231928	0.4016333333333333	5.068266666666667	1.0
768.2080319607024	0.3948333333333333	4.9432	1.0
768.2080319607024	0.3948333333333333	4.955066666666666	1.0
768.2080319607024	0.4064	5.316666666666666	1.0
767.5082774225237	0.4324999999999999	5.316666666666666	1.0
767.5082774225237	0.3992666666666666	5.138933333333333	1.0
767.5097071017823	0.4005999999999999	4.972133333333333	1.0
767.5097071017823	0.40409999999999996	4.9316	1.0
767.5097071017823	0.3850999999999999	4.752666666666666	1.0
767.0739064401729	0.3909666666666666	4.753466666666667	1.0
767.0739064401729	0.38143333333333324	4.680133333333334	1.0
766.0295530989081	0.3835333333333332	4.652933333333333	1.0
766.0295530989081	0.3807666666666666	4.7144	1.0
766.0295530989081	0.39733333333333326	4.9592	1.0
765.9440816069298	0.39733333333333326	4.690266666666667	1.0
765.9440816069298	0.3860666666666666	4.690266666666667	1.0
765.9441511109279	0.38759999999999994	4.5592	1.0
765.9441511109279	0.3671333333333333	4.5184	1.0
765.8587774962192	0.35969999999999996	4.470266666666666	1.0
765.8587774962192	0.38336666666666663	4.534400000000001	1.0
765.8587774962192	0.4294666666666666	5.284666666666666	1.0
765.3347230703529	0.4574333333333332	5.3784	1.0
765.3347230703529	0.45503333333333323	5.400399999999999	1.0
764.902748019529	0.43849999999999995	5.240266666666667	1.0
764.902748019529	0.4236666666666666	5.074000000000001	1.0
764.902748019529	0.4236666666666666	5.0414666666666665	1.0
764.9036090053958	0.4231666666666665	4.980933333333333	1.0
764.9036090053958	0.40819999999999995	4.980933333333333	1.0
764.4713175978338	0.40853333333333325	4.9126666666666665	1.0
764.4713175978338	0.40693333333333326	4.795600000000001	1.0
764.4713175978338	0.40333333333333327	4.7744	1.0
763.9576775364056	0.3894333333333333	4.6	1.0
763.9576775364056	0.3716	4.536266666666667	1.0
763.957678998436	0.3837666666666666	4.513066666666666	1.0
763.957678998436	0.3671333333333333	4.445733333333334	1.0
763.9584326882529	0.37259999999999993	4.465733333333334	1.0
763.9584326882529	0.3933666666666666	4.612800000000001	1.0
763.9584326882529	0.3933666666666666	4.313466666666667	1.0
762.8375309505567	0.3698666666666666	4.078266666666667	1.0
762.8375309505567	0.35279999999999995	4.078266666666667	1.0
762.8393087231048	0.33579999999999993	3.8903999999999996	1.0
762.8393087231048	0.34083333333333327	3.8964000000000003	1.0
762.8393087231048	0.3919999999999999	4.5268	1.0
762.4110480750779	0.3620999999999999	4.123066666666667	1.0
762.4110480750779	0.36283333333333334	4.155200000000001	1.0
762.148691793736	0.3563666666666666	4.096533333333333	1.0
762.148691793736	0.3787666666666666	4.293466666666666	1.0
762.1509698853064	0.3692666666666666	4.349866666666667	1.0
762.1509698853064	0.3789999999999999	4.289466666666667	1.0
762.1509698853064	0.3789999999999999	4.342666666666666	1.0
762.0684903929616	0.3854666666666666	4.342666666666666	1.0
762.0684903929616	0.38449999999999995	4.4501333333333335	1.0
761.712439348677	0.3830333333333333	4.463066666666667	1.0
761.712439348677	0.4023999999999999	4.438133333333334	1.0
761.712439348677	0.38649999999999995	4.306	1.0
758.0520402691129	0.38676666666666665	4.266933333333333	1.0
758.0520402691129	0.3859333333333333	4.2787999999999995	1.0
758.051194121239	0.39409999999999995	4.347200000000001	1.0
758.051194121239	0.4187666666666666	4.550133333333333	1.0
758.051194121239	0.4247333333333333	4.6156	1.0
757.3700860563374	0.4247333333333333	4.547466666666667	1.0
757.3700860563374	0.42346666666666666	4.233200000000001	1.0
757.2088278400025	0.3890333333333333	4.233200000000001	1.0
757.2088278400025	0.4001666666666666	4.334800000000001	1.0
756.9500552222634	0.4091333333333333	4.507466666666667	1.0
756.9500552222634	0.43863333333333326	4.671066666666667	1.0
756.9500552222634	0.4292666666666666	4.669733333333333	1.0
756.8674052409752	0.42223333333333324	4.5804	1.0
756.8674052409752	0.38409999999999994	4.223733333333333	1.0
756.8672455504832	0.3757999999999999	3.976133333333333	1.0
756.8672455504832	0.4143666666666666	4.564533333333333	1.0
756.8672455504832	0.41866666666666663	4.5884	1.0
756.5278361137192	0.41866666666666663	4.390266666666667	1.0
756.5278361137192	0.4022666666666666	3.997866666666667	1.0
756.1856159112695	0.3771666666666666	3.997866666666667	1.0
756.1856159112695	0.37449999999999994	3.9208	1.0
756.1856159112695	0.3800666666666666	4.019333333333334	1.0
755.8494116542385	0.40229999999999994	4.283733333333333	1.0
755.8494116542385	0.4026333333333333	4.303733333333333	1.0
755.0921806905517	0.39916666666666656	4.202933333333333	1.0
755.0921806905517	0.4168333333333332	4.278533333333333	1.0
754.67131471516	0.3965999999999999	4.2168	1.0
754.67131471516	0.41843333333333327	4.226	1.0
754.67131471516	0.41843333333333327	3.9803999999999995	1.0
754.2545976707531	0.39106666666666656	4.006	1.0
754.2545976707531	0.3911666666666666	4.006	1.0
753.9968387446264	0.44213333333333327	4.497066666666667	1.0
753.9968387446264	0.4495666666666666	4.673333333333334	1.0
753.9968387446264	0.42869999999999997	4.4892	1.0
753.6627544027856	0.41693333333333327	4.187600000000001	1.0
753.6627544027856	0.41989999999999994	4.268266666666666	1.0
753.5801085078896	0.45269999999999994	4.523466666666667	1.0
753.5801085078896	0.42299999999999993	4.404933333333334	1.0
753.5801085078896	0.3809666666666666	3.866266666666667	1.0
753.1628718970762	0.42039999999999994	4.351466666666667	1.0
753.1628718970762	0.42039999999999994	4.3432	1.0
753.1628718970762	0.43383333333333324	4.4274666666666675	1.0
753.1628718970762	0.43309999999999993	4.4274666666666675	1.0
752.4896562556434	0.42339999999999994	4.312400000000001	1.0
752.4896562556434	0.4326999999999999	4.180933333333333	1.0
752.4896562556434	0.4225666666666666	4.250533333333333	1.0
752.1530449875281	0.4277999999999999	4.322133333333334	1.0
752.1530449875281	0.40859999999999996	4.060133333333334	1.0
751.4067386434947	0.43399999999999994	4.328	1.0
751.4067386434947	0.4225999999999999	4.232933333333333	1.0
751.4067386434947	0.44929999999999987	4.396000000000001	1.0
751.0680880759644	0.4675	4.526266666666666	1.0
751.0680880759644	0.4675	4.523733333333333	1.0
751.0681304617656	0.4527666666666666	4.4588	1.0
751.0681304617656	0.44849999999999995	4.4588	1.0
750.6529952828815	0.44626666666666664	4.402933333333333	1.0
750.6529952828815	0.44083333333333324	4.315733333333333	1.0
750.6529952828815	0.4398333333333333	4.266933333333333	1.0
750.320504492042	0.42063333333333325	3.9765333333333333	1.0
750.320504492042	0.4106666666666666	3.9455999999999993	1.0
