wavelength(nm)	flourescence PMT(V)	ti_saph Power (V)	Gain (V)
750.3254128959769	0.44113333333333327	4.0832	1.0
750.3254128959769	0.4292333333333333	3.9830666666666663	1.0
750.6568432344102	0.4469999999999999	4.302266666666667	1.0
750.6568432344102	0.44939999999999997	4.2456000000000005	1.0
750.9930779554519	0.4373333333333333	4.1484	1.0
750.9930779554519	0.44829999999999987	4.1946666666666665	1.0
750.9930779554519	0.4377999999999999	4.238933333333333	1.0
751.0736629486913	0.4377999999999999	4.2516	1.0
751.0736629486913	0.4271333333333333	4.27	1.0
751.4070997964681	0.44423333333333326	4.27	1.0
751.4070997964681	0.4298999999999999	4.112933333333333	1.0
752.0400706896929	0.43379999999999996	4.180933333333333	1.0
752.0400706896929	0.4131666666666666	3.950533333333333	1.0
752.0400706896929	0.43633333333333324	4.313866666666668	1.0
752.0400706896929	0.45866666666666656	4.5687999999999995	1.0
752.0400706896929	0.4744	4.706	1.0
752.4945008296095	0.4176999999999999	4.084133333333333	1.0
752.4945008296095	0.40779999999999994	3.953066666666666	1.0
752.828088212016	0.4089666666666666	4.070266666666666	1.0
752.828088212016	0.4089666666666666	4.252133333333334	1.0
752.828088212016	0.4341	4.252133333333334	1.0
753.1666529344775	0.4233666666666666	4.132933333333334	1.0
753.1666529344775	0.41743333333333327	4.12	1.0
753.5816130288281	0.41089999999999993	4.080933333333334	1.0
753.5816130288281	0.42189999999999994	4.241333333333333	1.0
753.581488844033	0.4298666666666666	4.319733333333334	1.0
753.581488844033	0.4276333333333332	4.289333333333334	1.0
753.581488844033	0.42206666666666665	4.2627999999999995	1.0
754.0008828483449	0.4420999999999999	4.450666666666667	1.0
754.0008828483449	0.4353666666666666	4.462666666666667	1.0
754.3375358468356	0.4353666666666666	4.077466666666667	1.0
754.3375358468356	0.4031333333333333	3.8080000000000003	1.0
754.33671040146	0.3824666666666666	3.8080000000000003	1.0
754.33671040146	0.3946333333333333	3.8402666666666665	1.0
755.0134298999548	0.3949333333333333	4.0098666666666665	1.0
755.0134298999548	0.42569999999999997	4.314933333333333	1.0
755.0134298999548	0.41379999999999995	4.383200000000001	1.0
755.7717406853926	0.39856666666666657	4.137600000000001	1.0
755.7717406853926	0.3869333333333333	4.005866666666667	1.0
755.8539516414882	0.38946666666666657	3.9857333333333336	1.0
755.8539516414882	0.37856666666666666	3.9764000000000004	1.0
756.1948726386911	0.39009999999999995	3.9459999999999997	1.0
756.1948726386911	0.39009999999999995	4.0504	1.0
756.1948726386911	0.3876666666666666	4.172000000000001	1.0
756.5314746291402	0.3929666666666666	4.172000000000001	1.0
756.5314746291402	0.39916666666666656	4.165066666666666	1.0
756.5309027684473	0.3898333333333333	4.0902666666666665	1.0
756.5309027684473	0.3876666666666666	4.034533333333333	1.0
756.872888354949	0.3926333333333333	4.246933333333333	1.0
756.872888354949	0.4171333333333333	4.351866666666666	1.0
756.872888354949	0.4034333333333333	4.368533333333333	1.0
750.2042992493873	0.3971333333333332	4.356933333333334	1.0
750.2042992493873	0.38463333333333327	4.1168	1.0
757.2096712292869	0.3802333333333333	4.036933333333333	1.0
757.2096712292869	0.3802333333333333	4.056266666666667	1.0
757.2089358263826	0.3873999999999999	4.056266666666667	1.0
757.2089358263826	0.39046666666666663	4.068533333333333	1.0
757.2089358263826	0.37463333333333326	3.918933333333333	1.0
757.3740277838548	0.37689999999999996	4.091333333333334	1.0
757.3740277838548	0.3998999999999999	4.2405333333333335	1.0
757.5126377141828	0.4273333333333333	4.4448	1.0
757.5126377141828	0.41516666666666663	4.4412	1.0
758.0560367064475	0.3946333333333333	4.358133333333334	1.0
758.0560367064475	0.40513333333333323	4.444000000000001	1.0
758.0560367064475	0.41586666666666666	4.5596000000000005	1.0
762.0689771208847	0.41586666666666666	4.5680000000000005	1.0
762.0689771208847	0.41069999999999995	4.6424	1.0
762.0689771208847	0.40966666666666657	4.6424	1.0
762.0689771208847	0.4096999999999999	4.625333333333334	1.0
762.070405950759	0.4099666666666666	4.712666666666667	1.0
762.070405950759	0.41323333333333323	4.831333333333333	1.0
762.070405950759	0.4234	4.8305333333333325	1.0
762.1541933662148	0.41859999999999997	4.7308	1.0
762.1541933662148	0.40363333333333323	4.5384	1.0
762.1541933662148	0.3922999999999999	4.518133333333333	1.0
762.1541933662148	0.37213333333333326	4.330933333333334	1.0
762.4158194876458	0.3700666666666666	4.177733333333333	1.0
762.4158194876458	0.3700666666666666	4.2828	1.0
762.4158194876458	0.37379999999999997	4.2828	1.0
762.8426964668961	0.4060666666666666	4.638533333333333	1.0
762.8426964668961	0.3973333333333333	4.6028	1.0
763.9592787776991	0.40159999999999996	4.600266666666667	1.0
763.9592787776991	0.4187999999999999	4.714133333333334	1.0
763.9624463025361	0.40933333333333327	4.842	1.0
763.9624463025361	0.4264333333333333	4.9589333333333325	1.0
763.9624463025361	0.41719999999999996	5.0010666666666665	1.0
763.9624463025361	0.4296999999999999	5.002266666666666	1.0
763.9624463025361	0.42213333333333325	5.0367999999999995	1.0
764.0459356388519	0.43119999999999997	4.992933333333333	1.0
764.0459356388519	0.43119999999999997	4.9812	1.0
764.3924655043568	0.42816666666666664	4.9812	1.0
764.3924655043568	0.37733333333333324	4.261066666666666	1.0
764.9083883206636	0.37253333333333327	4.260266666666666	1.0
764.9083883206636	0.44083333333333335	5.123866666666667	1.0
764.9083883206636	0.45183333333333325	5.335466666666666	1.0
764.9083838499675	0.4602333333333332	5.3984	1.0
764.9083838499675	0.45196666666666657	5.347866666666666	1.0
765.4347894512194	0.4106666666666666	4.7561333333333335	1.0
765.4347894512194	0.39229999999999987	4.697733333333334	1.0
765.5176977981836	0.39819999999999994	4.641733333333334	1.0
765.5176977981836	0.39819999999999994	4.6032	1.0
765.5176977981836	0.39683333333333326	4.5364	1.0
765.8647604362187	0.3894999999999999	4.5364	1.0
765.8647604362187	0.4082666666666666	4.888	1.0
765.9488682908686	0.4097666666666666	4.9344	1.0
765.9488682908686	0.42063333333333325	4.987066666666667	1.0
765.9488470767441	0.4050333333333333	4.878799999999999	1.0
765.9488470767441	0.4021666666666666	4.991733333333333	1.0
765.9488470767441	0.38159999999999994	4.5756000000000006	1.0
767.0792950687289	0.42016666666666663	5.1912	1.0
767.0792950687289	0.4276666666666666	5.3136	1.0
767.0760805937036	0.46613333333333323	5.471466666666667	1.0
767.0760805937036	0.46613333333333323	5.480666666666667	1.0
767.1630846615301	0.45319999999999994	4.860533333333334	1.0
767.1630846615301	0.39429999999999993	4.860533333333334	1.0
767.5123942138508	0.3933999999999999	4.681066666666667	1.0
767.5123942138508	0.4180999999999999	5.058800000000001	1.0
767.5123942138508	0.44293333333333335	5.2944	1.0
767.5123942138508	0.4466333333333334	5.401199999999999	1.0
767.5123942138508	0.4404666666666665	5.334933333333334	1.0
768.2155311037466	0.43876666666666664	5.4	1.0
768.2155311037466	0.43463333333333326	5.4736	1.0
768.6470334582654	0.3998999999999999	4.9932	1.0
768.6470334582654	0.3944333333333333	4.751200000000001	1.0
768.6470334582654	0.3944333333333333	4.673733333333334	1.0
768.9137006151756	0.37526666666666664	4.673733333333334	1.0
768.9137006151756	0.3796666666666666	4.756666666666667	1.0
768.9961520450204	0.4068999999999999	5.197333333333333	1.0
768.9961520450204	0.4188333333333333	5.122000000000001	1.0
769.0822564307762	0.40106666666666657	4.888	1.0
769.0822564307762	0.3883999999999999	4.8972	1.0
769.0822564307762	0.39599999999999996	4.996266666666667	1.0
769.3437232442799	0.3745666666666666	4.697066666666666	1.0
769.3437232442799	0.4330333333333332	5.455733333333333	1.0
770.1340173855505	0.45856666666666657	5.8457333333333334	1.0
770.1340173855505	0.4421	5.7264	1.0
770.5732876144289	0.4421	5.4446666666666665	1.0
770.5732876144289	0.4242333333333333	5.4446666666666665	1.0
770.571797176823	0.4269333333333333	5.399466666666665	1.0
770.571797176823	0.4268333333333333	5.370133333333333	1.0
770.571797176823	0.4032333333333332	5.235333333333334	1.0
771.2761289834365	0.38763333333333333	4.858133333333334	1.0
771.2761289834365	0.4021666666666666	5.024666666666667	1.0
771.6306939702689	0.39296666666666663	5.066800000000001	1.0
771.6306939702689	0.3770333333333333	4.803866666666666	1.0
771.981157966933	0.3714666666666666	4.664133333333333	1.0
771.981157966933	0.3757999999999999	4.772133333333334	1.0
771.981157966933	0.3757999999999999	5.31	1.0
772.0668854970357	0.4130999999999999	5.398666666666666	1.0
772.0668854970357	0.4104999999999999	5.398666666666666	1.0
772.1507967752491	0.41829999999999995	5.335333333333333	1.0
772.1507967752491	0.3976333333333333	5.048	1.0
772.3373127769478	0.38233333333333325	4.954133333333333	1.0
772.3373127769478	0.3824999999999999	4.939866666666667	1.0
772.3373127769478	0.4054	5.293466666666666	1.0
773.2162065136436	0.4365333333333333	5.581066666666666	1.0
773.2162065136436	0.41876666666666656	5.4172	1.0
773.5698035666486	0.37913333333333327	4.775066666666667	1.0
773.5698035666486	0.3596333333333333	4.716666666666667	1.0
774.0115908665134	0.3596333333333333	5.183466666666667	1.0
774.0115908665134	0.4010333333333333	5.503333333333333	1.0
774.0115908665134	0.42213333333333325	5.503333333333333	1.0
774.3676515494393	0.4055999999999999	5.305733333333333	1.0
774.3676515494393	0.40926666666666656	5.229733333333334	1.0
774.8096510984009	0.40399999999999997	5.211866666666666	1.0
774.8096510984009	0.3906666666666666	5.180933333333334	1.0
775.0777219175561	0.39286666666666664	5.027200000000001	1.0
775.0777219175561	0.3925666666666666	5.0356000000000005	1.0
775.1662956083393	0.41886666666666666	5.4268	1.0
775.1662956083393	0.4402333333333333	5.719733333333334	1.0
775.1662956083393	0.43643333333333334	5.751200000000001	1.0
775.2521872763465	0.43643333333333334	5.447066666666666	1.0
775.2521872763465	0.42389999999999994	5.303866666666666	1.0
775.437536540543	0.3957333333333332	5.303866666666666	1.0
775.437536540543	0.43026666666666663	5.439466666666666	1.0
775.5221166978844	0.38896666666666657	5.12	1.0
775.5221166978844	0.38523333333333326	5.008266666666667	1.0
775.5221166978844	0.40636666666666665	5.3789333333333325	1.0
775.5221166978844	0.4417666666666666	5.723066666666667	1.0
775.5221166978844	0.4401666666666666	5.551733333333332	1.0
776.6796687860314	0.4117333333333333	5.2672	1.0
776.6796687860314	0.4188333333333333	5.347066666666667	1.0
777.0399852837377	0.47136666666666655	6.0036	1.0
777.0399852837377	0.47136666666666655	6.078	1.0
777.0399852837377	0.46579999999999994	6.078	1.0
777.4828995722532	0.4523666666666666	6.0236	1.0
777.4828995722532	0.4292666666666666	5.467199999999999	1.0
777.8414304018984	0.44286666666666663	5.671466666666666	1.0
777.8414304018984	0.4319999999999999	5.5112000000000005	1.0
778.2017565710901	0.4300999999999999	5.496666666666667	1.0
778.2017565710901	0.4194666666666666	5.32	1.0
778.2017036309995	0.4124333333333333	5.3636	1.0
778.2017036309995	0.43119999999999997	5.6041333333333325	1.0
778.2017036309995	0.4449666666666665	5.795866666666668	1.0
778.3751121267615	0.4449666666666665	5.7364	1.0
778.3751121267615	0.44406666666666655	5.646533333333333	1.0
778.565432193839	0.42649999999999993	5.646533333333333	1.0
778.565432193839	0.4438	5.868933333333333	1.0
778.565432193839	0.4149666666666666	5.428933333333333	1.0
778.565432193839	0.41283333333333333	5.345466666666666	1.0
778.565432193839	0.4657333333333332	6.0188	1.0
779.7302067116888	0.4522666666666667	6.0305333333333335	1.0
779.7302067116888	0.43633333333333324	5.547466666666667	1.0
780.1744184979641	0.4326666666666666	5.606133333333332	1.0
780.1744184979641	0.4658999999999999	6.188666666666666	1.0
780.5406190291789	0.47606666666666664	6.034666666666667	1.0
780.5406190291789	0.47606666666666664	5.8284	1.0
780.5406190291789	0.4567	5.662399999999999	1.0
780.987603662842	0.4553999999999999	5.662399999999999	1.0
780.987603662842	0.44059999999999994	5.511333333333334	1.0
781.3474445762291	0.4396	5.797466666666667	1.0
781.3474445762291	0.49353333333333327	6.164133333333333	1.0
781.4392619900182	0.5068333333333331	6.369466666666667	1.0
781.4392619900182	0.479	6.1419999999999995	1.0
781.4392619900182	0.46603333333333324	5.882933333333333	1.0
781.624959784964	0.46959999999999996	5.960666666666666	1.0
781.624959784964	0.47613333333333324	5.8888	1.0
781.80026457276	0.47613333333333324	5.662266666666667	1.0
781.80026457276	0.45099999999999996	5.477866666666667	1.0
781.8007139245793	0.43956666666666666	5.477866666666667	1.0
781.8007139245793	0.4548999999999999	5.6636	1.0
782.9773376356989	0.47666666666666657	5.815333333333333	1.0
782.9773376356989	0.4358666666666666	5.318	1.0
782.9773376356989	0.43173333333333325	5.244666666666667	1.0
783.340993757398	0.47459999999999997	5.7467999999999995	1.0
783.340993757398	0.5200666666666666	6.4038666666666675	1.0
783.7025723729654	0.5148666666666666	6.505066666666667	1.0
783.7025723729654	0.46546666666666664	5.6084	1.0
783.7025723729654	0.46546666666666664	6.0408	1.0
783.7025723729654	0.5044666666666666	6.1470666666666665	1.0
783.7025723729654	0.5054666666666666	6.1470666666666665	1.0
784.4403992589869	0.4557333333333332	5.453600000000001	1.0
784.4403992589869	0.4527666666666666	5.4596	1.0
784.5249371838063	0.4801666666666667	5.877199999999999	1.0
784.5249371838063	0.5100333333333332	6.224933333333333	1.0
784.6168047098199	0.49816666666666665	6.030800000000001	1.0
784.6168047098199	0.5113	6.1357333333333335	1.0
784.6168047098199	0.5404666666666667	6.336133333333334	1.0
784.8864589674748	0.5005666666666665	5.9452	1.0
784.8864589674748	0.48306666666666664	5.725733333333333	1.0
784.8881820180127	0.48306666666666664	5.673066666666666	1.0
784.8881820180127	0.48249999999999993	5.667599999999999	1.0
786.0771299964134	0.4796999999999999	5.667599999999999	1.0
786.0771299964134	0.5353333333333333	6.1773333333333325	1.0
786.0771299964134	0.5349999999999999	6.223999999999999	1.0
786.0736962886982	0.5436666666666665	6.191199999999999	1.0
786.0736962886982	0.4917666666666666	5.6091999999999995	1.0
786.4431482398331	0.4926333333333332	5.469333333333334	1.0
786.4431482398331	0.48453333333333326	5.536266666666667	1.0
786.6109553330037	0.5080666666666667	5.716933333333333	1.0
786.6109553330037	0.5617	6.286666666666667	1.0
786.6109553330037	0.5623999999999999	6.148133333333334	1.0
786.6109553330037	0.5623999999999999	5.733333333333333	1.0
786.6109553330037	0.5505666666666668	5.56	1.0
787.636961228463	0.5125	5.56	1.0
787.636961228463	0.5161333333333332	5.538266666666665	1.0
787.9104761934791	0.5441666666666666	5.7809333333333335	1.0
787.9104761934791	0.5943333333333333	6.238666666666666	1.0
788.002984691893	0.5897333333333332	6.2387999999999995	1.0
788.002984691893	0.5895333333333332	6.2464	1.0
788.002984691893	0.5851	6.029333333333333	1.0
788.0933546917071	0.5483333333333333	5.650533333333333	1.0
788.0933546917071	0.5307	5.579199999999999	1.0
788.0933546917071	0.5529666666666665	5.614399999999999	1.0
788.0933546917071	0.5529666666666665	6.064933333333333	1.0
789.2886885896597	0.6194	6.064933333333333	1.0
789.2886885896597	0.6349666666666666	6.0608	1.0
789.2886885896597	0.6435666666666666	6.070399999999999	1.0
789.6597801078302	0.6783666666666667	6.364666666666667	1.0
789.6597801078302	0.7141666666666666	6.610800000000001	1.0
789.6602112031094	0.7375333333333333	6.794133333333334	1.0
789.6602112031094	0.8236333333333332	6.319866666666667	1.0
788.0052688406506	0.5680666666666665	6.0336	1.0
788.0052688406506	0.6120666666666665	6.4253333333333345	1.0
787.7231884513584	0.6082666666666666	6.5776	1.0
787.7231884513584	0.5827	6.229466666666667	1.0
787.3555268778459	0.5271666666666666	5.672	1.0
787.3555268778459	0.5318999999999999	5.8056	1.0
787.3555268778459	0.5342333333333332	5.865466666666666	1.0
786.989018284188	0.5342333333333332	6.0572	1.0
786.989018284188	0.5229666666666666	6.0572	1.0
786.4413913171363	0.4976666666666666	5.638933333333332	1.0
786.4413913171363	0.4875999999999999	5.494266666666666	1.0
786.0739904237414	0.4829333333333333	5.485866666666666	1.0
786.0739904237414	0.4974666666666666	5.827866666666666	1.0
786.0739904237414	0.5523666666666666	6.4996	1.0
786.0764395247156	0.5659333333333333	6.524	1.0
786.0764395247156	0.5078666666666666	6.039466666666667	1.0
784.8934568794591	0.46419999999999995	5.7216000000000005	1.0
784.8934568794591	0.49849999999999983	6.008666666666667	1.0
784.8886046489514	0.49849999999999983	6.121733333333333	1.0
784.8886046489514	0.5117999999999999	6.242133333333333	1.0
784.7983877740621	0.5251	6.242133333333333	1.0
784.7983877740621	0.5438333333333333	6.5188	1.0
784.7983877740621	0.5188333333333333	6.234133333333334	1.0
784.5246044286916	0.5008999999999999	6.1032	1.0
784.5246044286916	0.4958666666666666	6.040133333333333	1.0
784.4397615341132	0.4776333333333332	5.932533333333333	1.0
784.4397615341132	0.4695666666666666	5.6209333333333324	1.0
784.4397615341132	0.4831333333333333	5.952133333333333	1.0
784.4397615341132	0.4881999999999999	5.977599999999999	1.0
784.4397615341132	0.4881999999999999	5.998666666666666	1.0
783.3409595675389	0.4809999999999999	6.471466666666667	1.0
783.3409595675389	0.5180333333333332	6.471466666666667	1.0
782.8903271007533	0.4808666666666666	6.110266666666666	1.0
782.8903271007533	0.45856666666666657	5.7358666666666664	1.0
781.7990534992406	0.49879999999999997	6.198666666666666	1.0
781.7990534992406	0.5115333333333333	6.286933333333334	1.0
781.7990534992406	0.43823333333333325	5.4268	1.0
781.7115740483013	0.45809999999999995	5.8252	1.0
781.7115740483013	0.4722333333333333	6.040533333333333	1.0
781.6237314533512	0.4777666666666666	6.0488	1.0
781.6237314533512	0.4688999999999999	5.920533333333333	1.0
781.348987099598	0.4688999999999999	5.999333333333334	1.0
781.348987099598	0.46909999999999985	5.999333333333334	1.0
781.348987099598	0.4645333333333333	5.818133333333334	1.0
781.349282221982	0.4354666666666666	5.428933333333333	1.0
781.349282221982	0.41989999999999994	5.31	1.0
780.987373503449	0.42799999999999994	5.254666666666667	1.0
780.987373503449	0.4614666666666666	5.8392	1.0
780.5393640876641	0.42566666666666664	5.3882666666666665	1.0
780.5393640876641	0.44	5.525066666666667	1.0
779.8123518675328	0.4323999999999999	5.441999999999999	1.0
779.8123518675328	0.43116666666666653	5.502666666666666	1.0
779.8123518675328	0.4153666666666666	5.349333333333332	1.0
779.8123518675328	0.4153666666666666	5.953333333333333	1.0
779.8123518675328	0.4648333333333333	5.564799999999999	1.0
778.646096056414	0.43379999999999996	5.564799999999999	1.0
778.646096056414	0.41916666666666663	5.527066666666666	1.0
778.5615845699873	0.4569999999999999	6.009066666666666	1.0
778.5615845699873	0.4642999999999999	6.2028	1.0
778.5615845699873	0.45649999999999996	5.863733333333333	1.0
778.2899853237429	0.4469333333333333	5.836133333333334	1.0
778.2899853237429	0.4477666666666666	5.726933333333333	1.0
778.2006626681098	0.41829999999999995	5.438000000000001	1.0
778.2006626681098	0.41389999999999993	5.217466666666667	1.0
777.9297687326099	0.4337	5.602266666666666	1.0
777.9297687326099	0.4337	5.575733333333333	1.0
777.9297687326099	0.4351333333333332	5.3617333333333335	1.0
777.4842333009905	0.41569999999999996	5.3617333333333335	1.0
777.4842333009905	0.4099333333333333	5.357599999999999	1.0
777.1229249792551	0.40856666666666663	5.305866666666666	1.0
777.1229249792551	0.4046333333333333	5.198133333333334	1.0
776.6793717763433	0.4006333333333333	5.156	1.0
776.6793717763433	0.43639999999999995	5.652133333333333	1.0
776.5974223462482	0.4379	5.763066666666667	1.0
776.5974223462482	0.4339333333333333	5.710400000000001	1.0
776.5974223462482	0.4234333333333333	5.406133333333333	1.0
775.521005278028	0.4231	5.456933333333333	1.0
775.521005278028	0.4231	5.7256	1.0
775.2512564396117	0.43979999999999997	5.7256	1.0
775.2512564396117	0.4517666666666666	6.0336	1.0
775.1661803857183	0.4454666666666666	5.866933333333333	1.0
775.1661803857183	0.4387666666666666	5.643466666666667	1.0
775.1661803857183	0.40153333333333324	5.2596	1.0
775.0796520781362	0.3770666666666666	5.060666666666666	1.0
775.0796520781362	0.38569999999999993	4.9072	1.0
775.0796520781362	0.4057666666666666	5.347599999999999	1.0
775.0796520781362	0.42039999999999994	5.456133333333333	1.0
774.3687888233628	0.42479999999999996	5.586666666666666	1.0
774.3687888233628	0.42479999999999996	5.236933333333333	1.0
774.3687888233628	0.4006333333333333	5.309466666666667	1.0
773.9645535772987	0.4082333333333333	5.309466666666667	1.0
773.9645535772987	0.39173333333333327	5.006266666666667	1.0
773.5705953951481	0.38576666666666665	5.0064	1.0
773.5705953951481	0.3909333333333333	5.0816	1.0
773.3023121766416	0.3897666666666666	5.073066666666667	1.0
773.3023121766416	0.3913	4.933066666666666	1.0
773.3023121766416	0.37593333333333323	4.8420000000000005	1.0
772.3378769013314	0.41579999999999995	5.229333333333333	1.0
772.3378769013314	0.4376999999999999	5.554666666666666	1.0
772.1524854762646	0.43626666666666664	5.608266666666665	1.0
772.1524854762646	0.43626666666666664	4.9608	1.0
771.982749263747	0.40043333333333325	4.667466666666668	1.0
771.982749263747	0.3657333333333333	4.667466666666668	1.0
771.9843234471915	0.3610999999999999	4.600666666666668	1.0
771.9843234471915	0.37216666666666665	4.751333333333334	1.0
771.9843234471915	0.4159999999999999	5.308933333333333	1.0
771.7137109413288	0.4154666666666666	5.322933333333333	1.0
771.7137109413288	0.3874666666666666	4.8724	1.0
771.2752859627423	0.38606666666666667	4.9568	1.0
771.2752859627423	0.40033333333333326	5.068666666666666	1.0
770.8388293897578	0.39436666666666664	4.979733333333334	1.0
770.8388293897578	0.3890333333333333	4.934266666666667	1.0
770.8388293897578	0.3890333333333333	5.140266666666667	1.0
770.405097093789	0.4099666666666666	4.870666666666667	1.0
770.405097093789	0.39023333333333327	4.870666666666667	1.0
770.1347872358986	0.39223333333333327	4.916133333333333	1.0
770.1347872358986	0.3943999999999999	4.8705333333333325	1.0
769.0811788094286	0.40486666666666665	5.137333333333333	1.0
769.0811788094286	0.4317666666666666	5.3792	1.0
769.0811788094286	0.42183333333333334	5.2856	1.0
768.9946910550311	0.3673333333333333	4.5545333333333335	1.0
768.9946910550311	0.35929999999999995	4.440266666666667	1.0
768.9960118500122	0.3688666666666666	4.44	1.0
768.9960118500122	0.3867666666666666	4.822533333333334	1.0
768.6434613262013	0.3867666666666666	5.357333333333333	1.0
768.6434613262013	0.42416666666666664	5.088266666666667	1.0
768.6434613262013	0.4092333333333333	5.088266666666667	1.0
768.2101038564927	0.3964333333333333	4.942666666666668	1.0
768.2101038564927	0.3938666666666666	4.954666666666667	1.0
767.7713206575766	0.42906666666666654	5.2219999999999995	1.0
767.7713206575766	0.3962666666666666	4.7644	1.0
767.5106674586731	0.3807999999999999	4.6584	1.0
767.5106674586731	0.4106666666666666	5.023866666666666	1.0
767.5106674586731	0.41216666666666657	5.0308	1.0
767.0805001861852	0.3854666666666666	4.782133333333333	1.0
767.0805001861852	0.3854666666666666	4.712666666666667	1.0
767.0771359998463	0.3900666666666666	4.758133333333333	1.0
767.0771359998463	0.40753333333333325	4.758133333333333	1.0
766.0360091775268	0.40629999999999994	4.949333333333334	1.0
766.0360091775268	0.43156666666666654	5.208266666666667	1.0
765.94861747066	0.4124333333333333	4.968	1.0
765.94861747066	0.3930333333333333	4.616533333333334	1.0
765.94861747066	0.37949999999999995	4.4883999999999995	1.0
765.94861747066	0.3686666666666666	4.3970666666666665	1.0
765.94861747066	0.3745666666666666	4.444533333333334	1.0
765.516930477348	0.40763333333333324	4.8595999999999995	1.0
765.516930477348	0.4066666666666666	4.7804	1.0
765.3448677646218	0.4066666666666666	4.918266666666667	1.0
765.3448677646218	0.42373333333333324	4.708	1.0
765.3448677646218	0.39856666666666657	4.708	1.0
764.9091968306346	0.43696666666666656	5.0120000000000005	1.0
764.9091968306346	0.41653333333333326	4.973333333333334	1.0
764.9082836217275	0.4193999999999999	4.976533333333333	1.0
764.9082836217275	0.40963333333333324	4.9450666666666665	1.0
764.3919857164304	0.4095666666666666	4.793733333333334	1.0
764.3919857164304	0.4078666666666666	4.784533333333334	1.0
764.3919857164304	0.41576666666666656	4.750933333333334	1.0
764.0467101828784	0.3800999999999999	4.473333333333334	1.0
764.0467101828784	0.37873333333333326	4.357733333333334	1.0
764.0458266625305	0.37873333333333326	4.419466666666667	1.0
764.0458266625305	0.38109999999999994	4.460400000000001	1.0
764.0458266625305	0.3797666666666666	4.460400000000001	1.0
764.0458266625305	0.38326666666666664	4.4358666666666675	1.0
764.0458266625305	0.3977666666666666	4.6536	1.0
762.4867590476373	0.3880666666666666	4.2808	1.0
762.4867590476373	0.3626333333333333	4.0069333333333335	1.0
762.7577419770045	0.35229999999999995	4.035333333333334	1.0
762.7577419770045	0.39296666666666663	4.518266666666666	1.0
762.4141320254058	0.38319999999999993	4.410266666666667	1.0
762.4141320254058	0.3623666666666666	4.094666666666667	1.0
762.4141320254058	0.3559666666666666	4.0287999999999995	1.0
762.1525942389167	0.3559666666666666	3.880933333333333	1.0
762.1525942389167	0.34909999999999997	3.880933333333333	1.0
762.0718292800942	0.3584333333333332	3.8827999999999996	1.0
762.0718292800942	0.36619999999999997	4.116266666666667	1.0
762.0718483173315	0.39793333333333325	4.435333333333334	1.0
762.0718483173315	0.3960333333333333	4.415866666666667	1.0
762.0710020890383	0.38996666666666663	4.375200000000001	1.0
762.0710020890383	0.3819666666666666	4.391466666666668	1.0
762.0710020890383	0.3849333333333333	4.317866666666667	1.0
762.0690160009085	0.38559999999999994	4.281199999999999	1.0
762.0690160009085	0.3956333333333333	4.280133333333334	1.0
757.972883759821	0.3956333333333333	4.190800000000001	1.0
757.972883759821	0.3881666666666666	4.088266666666667	1.0
757.6311708947698	0.3729666666666666	4.088266666666667	1.0
757.6311708947698	0.3775666666666666	4.040266666666668	1.0
757.6311708947698	0.38949999999999996	4.088666666666668	1.0
757.2909840087882	0.3725666666666666	3.915333333333333	1.0
757.2909840087882	0.3779666666666666	4.104400000000001	1.0
757.2095656990546	0.42416666666666664	4.500800000000001	1.0
757.2095656990546	0.4255333333333332	4.52	1.0
756.9512836270494	0.4184999999999999	4.52	1.0
756.9512836270494	0.42226666666666657	4.612266666666668	1.0
756.9512836270494	0.4325333333333333	4.645866666666667	1.0
756.954868802246	0.4325333333333333	4.1684	1.0
756.954868802246	0.39223333333333327	4.1684	1.0
756.5314936204674	0.38076666666666664	3.989066666666666	1.0
756.5314936204674	0.39396666666666663	4.210933333333333	1.0
756.5299998515859	0.4155333333333333	4.500799999999999	1.0
756.5299998515859	0.43429999999999996	4.543066666666667	1.0
756.5299998515859	0.3971	4.204133333333333	1.0
756.1103713105753	0.3968	4.1368	1.0
756.1103713105753	0.40416666666666656	4.2264	1.0
756.1112657920643	0.40806666666666663	4.248266666666667	1.0
756.1112657920643	0.4063333333333333	4.220533333333334	1.0
755.3523256299156	0.4063333333333333	4.291733333333333	1.0
755.3523256299156	0.4172333333333332	4.1575999999999995	1.0
755.3523256299156	0.4032333333333333	4.1575999999999995	1.0
755.0116285099817	0.3848333333333333	3.9554666666666662	1.0
755.0116285099817	0.3866333333333333	3.969333333333333	1.0
755.0116285099817	0.39146666666666663	3.9954666666666663	1.0
755.0116285099817	0.41893333333333327	4.19	1.0
754.0015903166832	0.4230666666666666	4.455733333333334	1.0
754.0015903166832	0.45656666666666657	4.657866666666667	1.0
754.0015903166832	0.44373333333333337	4.565466666666667	1.0
754.0007526166459	0.4274333333333332	4.3044	1.0
754.0007526166459	0.44649999999999995	4.596000000000001	1.0
753.5823184551616	0.44649999999999995	4.581333333333333	1.0
753.5823184551616	0.44423333333333326	4.427333333333333	1.0
753.1657727513135	0.44309999999999994	4.427333333333333	1.0
753.1657727513135	0.4344333333333333	4.380266666666668	1.0
753.1657727513135	0.4331999999999999	4.3638666666666674	1.0
752.7865708678745	0.4407333333333333	4.332666666666667	1.0
752.7865708678745	0.41243333333333326	4.1248000000000005	1.0
752.5120107879256	0.42676666666666657	4.164266666666666	1.0
752.5120107879256	0.42686666666666656	4.159866666666667	1.0
752.1577870497532	0.42856666666666665	4.218133333333333	1.0
752.1577870497532	0.42303333333333326	4.221733333333333	1.0
751.7404954479741	0.4271	4.136	1.0
751.7404954479741	0.4271	4.523600000000001	1.0
751.7404954479741	0.4554999999999999	4.523600000000001	1.0
751.7404954479741	0.45416666666666666	4.4976	1.0
751.7404954479741	0.4477666666666666	4.281066666666667	1.0
751.073605102248	0.4219	3.971066666666667	1.0
751.073605102248	0.43309999999999993	4.2548	1.0
750.9929614615423	0.4323333333333333	4.172533333333334	1.0
750.9929614615423	0.4326333333333332	4.0465333333333335	1.0
750.9929614615423	0.4533333333333333	4.353466666666668	1.0
750.9929614615423	0.4522666666666665	4.301333333333334	1.0
750.9929614615423	0.42866666666666653	4.030133333333334	1.0
750.9929614615423	0.42866666666666653	4.187333333333333	1.0
750.9929614615423	0.43873333333333325	4.167066666666666	1.0
