wavelength(nm)	flourescence PMT(V)	ti_saph Power (V)	Gain (V)
800.4460670140512	0.09289999999999995	1.1917333333333338	1.0
800.4251620057009	0.09013333333333329	1.2397333333333336	1.0
800.4251620057009	0.09459999999999996	1.2420000000000002	1.0
800.8138061985265	0.09309999999999995	1.1657333333333335	1.0
800.8105842103137	0.09309999999999995	1.1540000000000001	1.0
800.9073589359921	0.09273333333333329	1.1540000000000001	1.0
801.1018496993178	0.09209999999999995	1.0842666666666665	1.0
801.1018496993178	0.09529999999999995	1.0864	1.0
801.1907924582538	0.0910333333333333	1.1098666666666668	1.0
801.1928636443222	0.09536666666666661	1.2326666666666668	1.0
801.189080929408	0.10369999999999994	1.3200000000000003	1.0
801.3771426783735	0.10036666666666663	1.312266666666667	1.0
801.3771426783735	0.0919333333333333	1.1613333333333336	1.0
801.3863555172933	0.09029999999999996	1.1600000000000001	1.0
802.3391362383439	0.08703333333333328	1.1597333333333333	1.0
802.7180616262484	0.09266666666666663	1.1796000000000002	1.0
802.7209351562361	0.09266666666666663	1.308666666666667	1.0
802.810495218952	0.09633333333333328	1.3189333333333335	1.0
802.810495218952	0.09783333333333329	1.3189333333333335	1.0
803.4853823996523	0.08933333333333329	1.1633333333333333	1.0
803.7669700929864	0.09413333333333329	1.2092000000000003	1.0
804.0621908222485	0.09583333333333328	1.303466666666667	1.0
804.2445057221869	0.09986666666666662	1.2294666666666667	1.0
804.2445057221869	0.0918333333333333	1.1705333333333334	1.0
804.3415968585882	0.09326666666666662	1.1753333333333336	1.0
804.3455025957251	0.09469999999999996	1.1642666666666666	1.0
804.3455025957251	0.09173333333333329	1.1593333333333335	1.0
804.3455025957251	0.09333333333333328	1.156666666666667	1.0
804.3455025957251	0.09333333333333328	1.1285333333333336	1.0
804.4396544868039	0.09063333333333327	1.15	1.0
804.7304489717144	0.08916666666666662	1.15	1.0
804.6250372825467	0.09489999999999996	1.16	1.0
804.7349337048272	0.09443333333333329	1.1649333333333334	1.0
804.7349337048272	0.09393333333333329	1.1834666666666669	1.0
804.8241413583561	0.09799999999999998	1.2282666666666668	1.0
804.8241413583561	0.09769999999999995	1.218666666666667	1.0
806.0721759636522	0.09546666666666662	1.2409333333333337	1.0
806.069971564218	0.09759999999999995	1.3102666666666671	1.0
806.069971564218	0.09416666666666662	1.3094666666666668	1.0
806.0708084530229	0.09946666666666663	1.2853333333333337	1.0
806.8448957912185	0.09946666666666663	1.227466666666667	1.0
807.1196681307081	0.09579999999999995	1.284666666666667	1.0
807.1221740198175	0.09959999999999997	1.284666666666667	1.0
807.1221740198175	0.09613333333333329	1.2997333333333336	1.0
807.4223930855056	0.09339999999999997	1.16	1.0
807.4223930855056	0.09343333333333328	1.16	1.0
807.8097483903231	0.09086666666666662	1.16	1.0
807.8097483903231	0.09406666666666662	1.1686666666666667	1.0
807.8097483903231	0.1017333333333333	1.3145333333333336	1.0
807.8986546294624	0.09986666666666662	1.3128000000000002	1.0
807.898620422334	0.09793333333333329	1.3126666666666669	1.0
807.9054725216788	0.10123333333333329	1.2525333333333335	1.0
807.9972415568376	0.09699999999999998	1.2768000000000002	1.0
807.9972415568376	0.09699999999999998	1.3210666666666668	1.0
808.0992313735482	0.09753333333333329	1.3105333333333335	1.0
808.1939834706686	0.09686666666666663	1.3105333333333335	1.0
808.1939834706686	0.09636666666666663	1.1754666666666669	1.0
808.1939834706686	0.09623333333333328	1.1841333333333335	1.0
808.1939834706686	0.09306666666666663	1.2673333333333334	1.0
809.4493648333429	0.09793333333333329	1.2582666666666666	1.0
809.4523961004093	0.09676666666666663	1.2485333333333335	1.0
809.4558746402448	0.09359999999999995	1.2310666666666668	1.0
809.4516420749632	0.08876666666666663	1.2260000000000002	1.0
810.2390264729687	0.09759999999999995	1.2396000000000003	1.0
810.2390264729687	0.0973333333333333	1.1700000000000002	1.0
810.6213470102069	0.0973333333333333	1.3636000000000001	1.0
810.6304703459373	0.0976333333333333	1.4183999999999999	1.0
811.1097614076684	0.09873333333333328	1.4183999999999999	1.0
811.1097614076684	0.10229999999999996	1.3917333333333335	1.0
811.1097614076684	0.0981333333333333	1.4533333333333331	1.0
811.1098309927514	0.10096666666666664	1.48	1.0
811.067472821	0.10086666666666662	1.4798666666666667	1.0
811.3086039264813	0.09979999999999994	1.456533333333333	1.0
811.4104476815437	0.09846666666666662	1.3494666666666668	1.0
811.4104476815437	0.09759999999999995	1.3617333333333337	1.0
811.4091941007468	0.1015333333333333	1.357466666666667	1.0
811.4081593210966	0.09629999999999996	1.3180000000000003	1.0
811.5003033554488	0.09629999999999996	1.1817333333333335	1.0
811.4988389119712	0.09699999999999996	1.16	1.0
811.4988389119712	0.09159999999999996	1.16	1.0
811.7987280695938	0.09523333333333328	1.1604	1.0
811.8008765043642	0.09463333333333329	1.2269333333333337	1.0
812.6789197180798	0.09746666666666663	1.3797333333333335	1.0
813.1602040214058	0.09619999999999995	1.3998666666666668	1.0
813.1602040214058	0.09876666666666663	1.3810666666666669	1.0
813.0691585959127	0.0931333333333333	1.3185333333333338	1.0
813.1665109126135	0.09863333333333328	1.3326666666666669	1.0
813.1665109126135	0.09819999999999995	1.3862666666666668	1.0
813.1665109126135	0.09229999999999995	1.2456000000000003	1.0
813.1665109126135	0.09229999999999995	1.2413333333333336	1.0
814.0896203350522	0.09616666666666662	1.2714666666666667	1.0
814.7370325040386	0.09679999999999996	1.2714666666666667	1.0
814.7380488517575	0.10123333333333329	1.3977333333333335	1.0
814.7369996222515	0.09643333333333329	1.4202666666666666	1.0
814.7369996222515	0.09903333333333329	1.4642666666666666	1.0
814.7369665040799	0.10466666666666664	1.4601333333333333	1.0
814.7370045221835	0.10233333333333329	1.4158666666666666	1.0
815.1283468721498	0.09893333333333329	1.282	1.0
815.3255858604473	0.09023333333333329	1.2184000000000004	1.0
815.3255858604473	0.09176666666666662	1.3181333333333336	1.0
815.3199568316207	0.09546666666666662	1.3517333333333337	1.0
816.2138802626348	0.09546666666666662	1.294266666666667	1.0
816.2138802626348	0.09149999999999996	1.1604	1.0
816.8108447472194	0.09383333333333328	1.1604	1.0
816.8108447472194	0.09583333333333328	1.2133333333333336	1.0
816.9064538097629	0.0929333333333333	1.319066666666667	1.0
817.3071779428925	0.09526666666666661	1.288266666666667	1.0
817.4953120134975	0.09696666666666663	1.3229333333333335	1.0
817.4953120134975	0.09096666666666663	1.2409333333333334	1.0
817.4953120134975	0.09359999999999997	1.178266666666667	1.0
817.4953120134975	0.08903333333333328	1.2337333333333336	1.0
818.1927359835494	0.08729999999999996	1.3277333333333334	1.0
818.2870589087465	0.09009999999999996	1.2408000000000001	1.0
818.2920722140582	0.09059999999999996	1.174266666666667	1.0
818.2920722140582	0.09059999999999996	1.2465333333333335	1.0
818.4986158060921	0.08729999999999995	1.2996000000000003	1.0
818.5945197703054	0.09049999999999996	1.2996000000000003	1.0
818.5924750643608	0.08779999999999996	1.237066666666667	1.0
818.6927051869968	0.08636666666666663	1.2400000000000002	1.0
819.7898958172028	0.09279999999999995	1.3858666666666668	1.0
819.7898958172028	0.0903333333333333	1.3761333333333337	1.0
819.7871630829076	0.09456666666666663	1.3384000000000003	1.0
819.7856588556215	0.08826666666666662	1.3393333333333335	1.0
820.4978307720517	0.08989999999999995	1.3041333333333336	1.0
820.493539531103	0.09089999999999997	1.3977333333333335	1.0
820.493539531103	0.08903333333333328	1.478133333333333	1.0
820.4918513271666	0.08903333333333328	1.4085333333333332	1.0
820.8224491049314	0.09573333333333328	1.3448000000000002	1.0
821.0879682849985	0.09286666666666661	1.3448000000000002	1.0
821.087335195519	0.08809999999999996	1.399333333333333	1.0
821.087335195519	0.09053333333333329	1.428133333333333	1.0
821.087335195519	0.08963333333333329	1.3989333333333331	1.0
821.087335195519	0.09076666666666662	1.4410666666666667	1.0
821.7943298360921	0.08973333333333329	1.48	1.0
821.8899389574368	0.08873333333333329	1.4798666666666669	1.0
821.8899389574368	0.0905333333333333	1.4053333333333333	1.0
821.8865644346931	0.08719999999999996	1.4001333333333335	1.0
821.8865644346931	0.08723333333333329	1.393866666666667	1.0
822.1912226746459	0.08723333333333329	1.3200000000000003	1.0
822.2918317926802	0.08543333333333329	1.3184000000000002	1.0
822.2918317926802	0.08569999999999996	1.3184000000000002	1.0
822.4844780086233	0.07946666666666662	1.3081333333333336	1.0
823.5007473229894	0.08616666666666663	1.3197333333333336	1.0
823.4963041725839	0.08463333333333328	1.4277333333333333	1.0
823.4963041725839	0.08379999999999996	1.4775999999999998	1.0
823.4963041725839	0.08533333333333329	1.4793333333333332	1.0
823.9023790070577	0.08616666666666663	1.4381333333333333	1.0
824.0931970528051	0.08856666666666663	1.4402666666666666	1.0
824.3997587210898	0.08113333333333328	1.382666666666667	1.0
824.4017822359833	0.08246666666666663	1.3230666666666668	1.0
824.4017822359833	0.08773333333333329	1.3368000000000002	1.0
824.40044404548	0.08773333333333329	1.2526666666666668	1.0
824.809988268173	0.08299999999999996	1.2526666666666668	1.0
824.809988268173	0.08113333333333328	1.4538666666666666	1.0
825.3111121989015	0.08389999999999996	1.4496	1.0
825.3111121989015	0.08239999999999995	1.3541333333333336	1.0
825.3074112685732	0.08233333333333329	1.4428	1.0
825.4066060018264	0.08769999999999994	1.4798666666666667	1.0
825.6120911266116	0.08329999999999996	1.4554666666666667	1.0
825.7133548402129	0.08259999999999995	1.4102666666666668	1.0
825.7145789557246	0.08153333333333329	1.3208000000000002	1.0
825.7145789557246	0.08339999999999995	1.3181333333333336	1.0
826.1191111685406	0.08326666666666661	1.3196000000000003	1.0
826.1191111685406	0.08326666666666661	1.4826666666666666	1.0
826.5238218883056	0.08016666666666662	1.4281333333333333	1.0
826.9311577796327	0.08339999999999995	1.4281333333333333	1.0
826.9311577796327	0.08426666666666663	1.3489333333333335	1.0
827.0317906802735	0.08529999999999996	1.3602666666666667	1.0
827.0317906802735	0.07953333333333329	1.3996	1.0
827.3332278667837	0.08459999999999997	1.3418666666666668	1.0
827.7420989557504	0.08009999999999996	1.3237333333333334	1.0
827.7420989557504	0.07863333333333329	1.438	1.0
827.8440477932529	0.08196666666666662	1.4711999999999998	1.0
828.0520952553012	0.08139999999999996	1.5036	1.0
828.2517701531073	0.07636666666666664	1.5338666666666667	1.0
828.6603262117341	0.07636666666666664	1.3933333333333333	1.0
828.6603262117341	0.08003333333333328	1.3492000000000004	1.0
828.8609821326617	0.08183333333333327	1.3492000000000004	1.0
828.8542102324116	0.08176666666666663	1.3482666666666672	1.0
829.3772618019514	0.07633333333333328	1.4470666666666667	1.0
829.3748104810185	0.08109999999999995	1.4085333333333332	1.0
829.3748104810185	0.07873333333333328	1.48	1.0
829.3734094522855	0.07969999999999995	1.5454666666666668	1.0
829.3780144016812	0.07956666666666662	1.4729333333333334	1.0
829.985137224276	0.07659999999999996	1.4269333333333334	1.0
829.9863249171673	0.08099999999999996	1.4802666666666666	1.0
829.9863249171673	0.0779333333333333	1.4397333333333333	1.0
830.3964554750698	0.08329999999999996	1.4793333333333332	1.0
830.3944448795052	0.08329999999999996	1.5517333333333334	1.0
830.8568172629413	0.07799999999999994	1.4818666666666664	1.0
831.2161451439857	0.07779999999999995	1.4818666666666664	1.0
831.2161451439857	0.08093333333333329	1.4831999999999999	1.0
831.2114190513745	0.08286666666666662	1.627333333333333	1.0
831.2114190513745	0.08236666666666662	1.6319999999999997	1.0
831.7288048190924	0.07859999999999996	1.5029333333333332	1.0
831.7214027631604	0.07763333333333328	1.48	1.0
832.1412850391757	0.07993333333333327	1.4687999999999999	1.0
832.1412850391757	0.08183333333333327	1.4133333333333333	1.0
832.1412850391757	0.07899999999999996	1.4041333333333335	1.0
832.7603953201913	0.08276666666666661	1.48	1.0
832.7601312602634	0.08276666666666661	1.4771999999999998	1.0
832.9640502805206	0.08146666666666663	1.3972	1.0
832.9640502805206	0.08226666666666661	1.3972	1.0
832.9640502805206	0.08063333333333328	1.4004	1.0
833.375778325399	0.08586666666666662	1.3868000000000003	1.0
833.3768103542749	0.09206666666666663	1.48	1.0
833.8893980941051	0.09163333333333329	1.5008	1.0
833.8893980941051	0.09889999999999996	1.4556	1.0
833.9912734089748	0.10223333333333329	1.281866666666667	1.0
833.9912734089748	0.10549999999999994	1.2814666666666668	1.0
834.3038860572265	0.11263333333333331	1.1373333333333333	1.0
834.7189923032248	0.10579999999999995	0.9238666666666667	1.0
834.7189923032248	0.10579999999999995	0.3616000000000002	1.0
834.7173867165428	0.08093333333333329	0.24186666666666687	1.0
835.0292684725346	0.08003333333333328	0.24186666666666687	1.0
835.2324390014709	0.0751666666666666	0.17986666666666684	1.0
835.2324390014709	0.06243333333333328	0.03720000000000004	1.0
835.2324390014709	0.060633333333333275	-0.003333333333333336	1.0
835.6530014839034	0.05493333333333328	-0.022266666666666688	1.0
835.7535947547325	0.05856666666666661	-0.02626666666666669	1.0
835.9062040424549	0.05279999999999994	-0.02426666666666669	1.0
836.3734889346917	0.05629999999999993	-0.02853333333333336	1.0
836.3734889346917	0.0511666666666666	-0.024133333333333354	1.0
836.3745921963655	0.05306666666666661	-0.024933333333333356	1.0
836.7958474326246	0.05306666666666661	-0.03080000000000003	1.0
836.7943951881117	0.05733333333333327	-0.025333333333333357	1.0
836.9944130706322	0.05353333333333327	-0.025333333333333357	1.0
836.9944130706322	0.04969999999999993	-0.024533333333333355	1.0
836.9944213424799	0.05343333333333326	-0.024533333333333355	1.0
837.4116923397748	0.05289999999999994	-0.025333333333333357	1.0
837.4144126766871	0.0536666666666666	-0.024133333333333354	1.0
837.5200188691856	0.0514666666666666	-0.02546666666666669	1.0
837.8250075206112	0.05163333333333327	-0.026133333333333356	1.0
837.8250075206112	0.05083333333333327	-0.023066666666666687	1.0
837.7244488845289	0.05073333333333327	-0.023066666666666687	1.0
837.7244488845289	0.05036666666666661	-0.02160000000000002	1.0
838.3495772945942	0.05036666666666661	-0.022266666666666688	1.0
838.3495772945942	0.049966666666666604	-0.023733333333333353	1.0
838.3495772945942	0.04989999999999994	-0.023733333333333353	1.0
839.0836455629261	0.05173333333333327	-0.024533333333333355	1.0
839.0881439412067	0.050799999999999935	-0.023733333333333353	1.0
839.5036793553796	0.0520666666666666	-0.024933333333333356	1.0
839.5014300208535	0.050466666666666604	-0.02240000000000002	1.0
839.5014300208535	0.05483333333333327	-0.026533333333333357	1.0
839.8236506738119	0.055833333333333277	-0.02786666666666669	1.0
840.342297714036	0.0526666666666666	-0.026400000000000024	1.0
840.5537040794748	0.051666666666666604	-0.02506666666666669	1.0
840.553533362867	0.05209999999999994	-0.02506666666666669	1.0
840.553533362867	0.05209999999999994	-0.02626666666666669	1.0
840.8611696527827	0.05346666666666661	-0.02626666666666669	1.0
840.8694682760114	0.0510666666666666	-0.023333333333333355	1.0
840.9731628770378	0.05229999999999994	-0.023333333333333355	1.0
840.9731628770378	0.05176666666666661	-0.023733333333333353	1.0
840.9731628770378	0.05416666666666659	-0.024533333333333355	1.0
840.9731628770378	0.05329999999999994	-0.025600000000000022	1.0
841.4963888289797	0.0492666666666666	-0.024400000000000022	1.0
841.7049189972663	0.05303333333333327	-0.024933333333333356	1.0
842.1282044294678	0.04989999999999994	-0.02426666666666669	1.0
842.1282044294678	0.0518666666666666	-0.027733333333333356	1.0
842.2405993463008	0.0518666666666666	-0.025733333333333355	1.0
842.1906877799424	0.0523666666666666	-0.02746666666666669	1.0
842.8634904718127	0.051466666666666605	-0.02746666666666669	1.0
842.8665918895061	0.05343333333333328	-0.026933333333333358	1.0
842.8665918895061	0.05163333333333327	-0.024400000000000022	1.0
843.0740914649475	0.0513666666666666	-0.026133333333333356	1.0
843.4996208424571	0.0486666666666666	-0.02400000000000002	1.0
843.4965495899556	0.05209999999999994	-0.024533333333333355	1.0
844.2378229753082	0.051966666666666606	-0.02586666666666669	1.0
844.2378229753082	0.047633333333333264	-0.022666666666666686	1.0
844.3452346046575	0.05209999999999994	-0.025600000000000022	1.0
844.5590040380727	0.05059999999999994	-0.022533333333333353	1.0
844.5592140854769	0.05059999999999994	-0.026400000000000024	1.0
844.5592140854769	0.0548666666666666	-0.027200000000000023	1.0
844.5592140854769	0.05213333333333326	-0.027200000000000023	1.0
844.7711128338799	0.0511666666666666	-0.023733333333333353	1.0
844.977745454447	0.05139999999999993	-0.024933333333333356	1.0
843.0722512913235	0.05309999999999994	-0.02666666666666669	1.0
843.0743688592135	0.05516666666666661	-0.02680000000000002	1.0
842.8632765455575	0.05423333333333327	-0.02680000000000002	1.0
842.8634086247393	0.05266666666666661	-0.023066666666666687	1.0
842.8634086247393	0.0559666666666666	-0.026400000000000024	1.0
842.5508982765363	0.0530666666666666	-0.02586666666666669	1.0
842.5508982765363	0.051999999999999935	-0.022533333333333353	1.0
841.7043270471239	0.053233333333333265	-0.02426666666666669	1.0
841.7083561624852	0.05069999999999994	-0.02386666666666669	1.0
841.7083561624852	0.052166666666666604	-0.022933333333333354	1.0
841.5879547006424	0.05039999999999993	-0.023733333333333353	1.0
841.3860673399367	0.05696666666666661	-0.02973333333333336	1.0
841.288420981282	0.05696666666666661	-0.025333333333333357	1.0
840.9688931055858	0.05493333333333328	-0.026533333333333357	1.0
840.9688931055858	0.05346666666666661	-0.026533333333333357	1.0
840.8638804637308	0.052666666666666605	-0.025600000000000022	1.0
840.8739529628814	0.052166666666666604	-0.027600000000000027	1.0
840.6569117826245	0.050799999999999935	-0.02546666666666669	1.0
840.5493458345192	0.05529999999999994	-0.024800000000000023	1.0
840.5493458345192	0.04799999999999994	-0.02173333333333335	1.0
840.3470869857655	0.05359999999999993	-0.027066666666666694	1.0
839.5058577284955	0.05173333333333327	-0.024666666666666687	1.0
839.3968399726979	0.04919999999999993	-0.026133333333333356	1.0
839.0839078744023	0.05499999999999993	-0.026133333333333356	1.0
838.9787847921315	0.05499999999999993	-0.02506666666666669	1.0
838.9787847921315	0.05109999999999994	-0.022533333333333353	1.0
838.9798260749897	0.04849999999999993	-0.022533333333333353	1.0
838.5592311713336	0.05193333333333326	-0.02586666666666669	1.0
838.1457509203581	0.05499999999999994	-0.026533333333333357	1.0
838.1464235278056	0.0539666666666666	-0.024933333333333356	1.0
838.1464235278056	0.05539999999999994	-0.025600000000000022	1.0
837.7278345862618	0.0496666666666666	-0.02173333333333335	1.0
837.7288058897258	0.05233333333333327	-0.025600000000000022	1.0
837.4138619420673	0.05173333333333327	-0.025333333333333357	1.0
837.412762523786	0.05359999999999993	-0.024533333333333355	1.0
837.412762523786	0.05006666666666661	-0.02360000000000002	1.0
836.996856333362	0.05006666666666661	-0.024133333333333354	1.0
837.10214856596	0.0523666666666666	-0.02506666666666669	1.0
836.7913870059165	0.0548666666666666	-0.02506666666666669	1.0
836.5802216674278	0.054333333333333275	-0.02546666666666669	1.0
836.5802216674278	0.0520666666666666	-0.023333333333333355	1.0
836.3788886604294	0.04983333333333327	-0.024933333333333356	1.0
835.8579994198315	0.04883333333333327	-0.024533333333333355	1.0
836.0609348975438	0.05483333333333327	-0.026933333333333358	1.0
836.0609082875277	0.055333333333333276	-0.02400000000000002	1.0
836.0609082875277	0.052199999999999934	-0.02200000000000002	1.0
835.6444332902645	0.048133333333333264	-0.019066666666666683	1.0
835.4381768836006	0.05786666666666661	-0.01933333333333335	1.0
835.4395913017804	0.05786666666666661	0.0	1.0
835.0340055488857	0.0558666666666666	0.02973333333333336	1.0
835.0340055488857	0.06196666666666661	0.02973333333333336	1.0
835.0304637880698	0.06433333333333327	0.07240000000000006	1.0
834.9280999417505	0.06863333333333328	0.12946666666666679	1.0
834.5109317457396	0.08486666666666662	0.3225333333333335	1.0
834.3025906337417	0.08926666666666662	0.5225333333333333	1.0
834.3025906337417	0.08926666666666662	0.5225333333333333	1.0
834.2033018301925	0.08926666666666662	0.5225333333333333	1.0
833.8889521961058	0.08926666666666662	0.5225333333333333	1.0
833.893693774494	0.09843333333333329	1.2346666666666668	1.0
833.3816272664304	0.10369999999999996	1.2805333333333335	1.0
833.3816272664304	0.09559999999999995	1.5225333333333333	1.0
833.3816272664304	0.0957333333333333	1.5620000000000003	1.0
832.9629814002105	0.0909333333333333	1.5473333333333334	1.0
832.9640765105295	0.08446666666666663	1.3989333333333334	1.0
832.9563398281548	0.08286666666666662	1.3977333333333333	1.0
832.7614027578136	0.08286666666666662	1.398	1.0
832.7614027578136	0.08666666666666661	1.4735999999999998	1.0
832.5506382579312	0.08616666666666663	1.4735999999999998	1.0
832.551970576153	0.08239999999999995	1.48	1.0
832.1397539984201	0.08526666666666663	1.4798666666666667	1.0
831.7265344225676	0.08166666666666662	1.4040000000000001	1.0
831.7265344225676	0.07936666666666663	1.3588000000000002	1.0
831.4810370376715	0.08003333333333329	1.4384	1.0
831.4810370376715	0.08513333333333328	1.5314666666666668	1.0
831.2140258966815	0.0821333333333333	1.607733333333333	1.0
831.0739213013187	0.07919999999999995	1.58	1.0
831.0739213013187	0.08206666666666662	1.48	1.0
830.4975127132163	0.08206666666666662	1.4696	1.0
830.3941646209872	0.08016666666666661	1.5269333333333335	1.0
830.0827077002924	0.08333333333333329	1.5269333333333335	1.0
829.8941054908164	0.08429999999999994	1.5856000000000001	1.0
829.8941054908164	0.07896666666666663	1.441066666666667	1.0
829.4786646992426	0.08113333333333328	1.48	1.0
829.3796022078506	0.08066666666666662	1.4030666666666667	1.0
829.3769529023992	0.07876666666666661	1.4266666666666667	1.0
829.2744761830526	0.08113333333333328	1.5068	1.0
829.2744761830526	0.08059999999999995	1.4806666666666666	1.0
829.3357749512988	0.08026666666666663	1.4618666666666664	1.0
828.8601622498704	0.08459999999999997	1.48	1.0
828.8601622498704	0.08459999999999997	1.4353333333333333	1.0
828.5614813013993	0.07976666666666662	1.4054666666666666	1.0
828.5614813013993	0.08416666666666663	1.4054666666666666	1.0
828.656904621515	0.07993333333333329	1.4233333333333333	1.0
827.7453143293774	0.08459999999999997	1.5209333333333335	1.0
827.9857820821543	0.08583333333333329	1.482	1.0
827.7459452352048	0.08243333333333329	1.48	1.0
827.3360639478786	0.08229999999999994	1.48	1.0
827.3360639478786	0.08319999999999995	1.4470666666666667	1.0
827.0304189459407	0.08133333333333329	1.3906666666666667	1.0
827.0314225977606	0.07789999999999996	1.384266666666667	1.0
827.0314407252341	0.07569999999999996	1.3926666666666667	1.0
826.4274636123434	0.07853333333333329	1.3490666666666669	1.0
826.4274636123434	0.07853333333333329	1.4654666666666667	1.0
826.114583876664	0.08649999999999997	1.484133333333333	1.0
825.7136953610943	0.08636666666666662	1.484133333333333	1.0
825.7135418261302	0.08029999999999995	1.322266666666667	1.0
825.6144901669405	0.07919999999999995	1.3561333333333336	1.0
825.6144901669405	0.08159999999999995	1.3769333333333336	1.0
825.4069226890459	0.08296666666666662	1.4252	1.0
825.4049029226933	0.08496666666666662	1.4797333333333331	1.0
825.211405580114	0.08279999999999996	1.4770666666666667	1.0
824.9040939429842	0.08249999999999995	1.3633333333333335	1.0
824.9040939429842	0.08309999999999995	1.4097333333333333	1.0
824.8071522704718	0.08919999999999995	1.4559999999999997	1.0
824.30586990837	0.08326666666666663	1.3209333333333335	1.0
824.401806872025	0.08326666666666663	1.3128000000000002	1.0
824.0006473873133	0.08369999999999995	1.3128000000000002	1.0
824.0006473873133	0.08103333333333328	1.3749333333333333	1.0
823.9022826179892	0.08446666666666662	1.4425333333333332	1.0
823.9022826179892	0.08496666666666662	1.478	1.0
823.4989418645779	0.08809999999999996	1.4793333333333334	1.0
823.5006878568255	0.0865333333333333	1.48	1.0
823.5006878568255	0.09209999999999996	1.4798666666666669	1.0
822.1959052634231	0.08646666666666664	1.3942666666666668	1.0
822.1959052634231	0.08903333333333328	1.3200000000000003	1.0
822.193126825148	0.0885333333333333	1.3204000000000002	1.0
821.98560276172	0.09216666666666662	1.3249333333333335	1.0
821.8912887593644	0.09216666666666662	1.4016	1.0
821.8912887593644	0.08499999999999995	1.4738666666666667	1.0
821.8847724549967	0.09026666666666662	1.4738666666666667	1.0
821.8859422027102	0.0924333333333333	1.4757333333333333	1.0
821.5861597866824	0.08813333333333329	1.4653333333333332	1.0
821.0902773111846	0.08946666666666662	1.48	1.0
821.0902773111846	0.09143333333333328	1.4633333333333334	1.0
820.9932758457826	0.08916666666666662	1.4332	1.0
820.5913430013184	0.09396666666666663	1.4453333333333334	1.0
820.5891487410368	0.08719999999999996	1.387066666666667	1.0
820.4891450648395	0.0868333333333333	1.3846666666666667	1.0
820.4891450648395	0.09176666666666662	1.4410666666666667	1.0
819.7893626991449	0.09176666666666662	1.3836000000000002	1.0
819.7917679038842	0.0905333333333333	1.3834666666666668	1.0
819.7915674391086	0.09536666666666661	1.3834666666666668	1.0
818.690451533972	0.08959999999999996	1.3560000000000003	1.0
818.690451533972	0.09159999999999996	1.3162666666666671	1.0
818.6910634127664	0.09679999999999996	1.4285333333333332	1.0
818.5902995430706	0.09416666666666663	1.3312000000000002	1.0
818.5902995430706	0.09349999999999996	1.3200000000000003	1.0
818.288739962739	0.09823333333333328	1.2973333333333334	1.0
818.288739962739	0.08643333333333328	1.283466666666667	1.0
818.288739962739	0.08813333333333329	1.2336	1.0
818.2918781153528	0.09013333333333329	1.223066666666667	1.0
818.2874958485519	0.09146666666666663	1.2404000000000002	1.0
817.7972948617013	0.09146666666666663	1.3193333333333335	1.0
817.7972948617013	0.09486666666666663	1.3193333333333335	1.0
817.4954161659001	0.0904333333333333	1.2082666666666668	1.0
817.4049853030058	0.08699999999999995	1.2365333333333335	1.0
817.3032070476992	0.09179999999999995	1.2689333333333335	1.0
816.9061116011261	0.08969999999999996	1.3209333333333335	1.0
816.9061116011261	0.09799999999999998	1.368666666666667	1.0
816.8106568531325	0.10136666666666663	1.4584	1.0
816.207388171067	0.09279999999999995	1.2077333333333335	1.0
815.3232144194304	0.0918333333333333	1.1772	1.0
815.3221040816136	0.0942333333333333	1.384666666666667	1.0
815.3221040816136	0.0942333333333333	1.3324	1.0
815.1348547385272	0.09853333333333329	1.2169333333333334	1.0
814.7369788802306	0.09316666666666663	1.2169333333333334	1.0
814.7369788802306	0.09359999999999996	1.1933333333333334	1.0
814.7405697699255	0.10036666666666662	1.3965333333333334	1.0
814.7405697699255	0.10039999999999996	1.48	1.0
814.7370850699665	0.09709999999999996	1.4557333333333333	1.0
814.7370850699665	0.09539999999999997	1.4201333333333332	1.0
814.0889132711831	0.09929999999999996	1.4125333333333332	1.0
814.043167344651	0.09569999999999997	1.2897333333333336	1.0
814.043167344651	0.09629999999999996	1.2590666666666668	1.0
814.0470471763535	0.10039999999999996	1.3185333333333336	1.0
813.1601249867741	0.10039999999999996	1.434	1.0
813.1600444724057	0.10193333333333329	1.4267999999999998	1.0
813.0241226350828	0.09829999999999994	1.4267999999999998	1.0
812.8668902137842	0.1013333333333333	1.4027999999999998	1.0
812.8668902137842	0.10253333333333328	1.3952000000000002	1.0
811.8018130453033	0.10193333333333329	1.3896000000000002	1.0
811.5036012722505	0.10059999999999995	1.3500000000000003	1.0
811.5031048968607	0.09959999999999997	1.304266666666667	1.0
811.4998713439169	0.09123333333333329	1.16	1.0
811.4998713439169	0.09686666666666663	1.1649333333333334	1.0
811.4986699428522	0.09869999999999997	1.2602666666666669	1.0
811.4986699428522	0.10086666666666663	1.304266666666667	1.0
811.3095933186978	0.10093333333333329	1.3229333333333337	1.0
811.3055087265589	0.10093333333333329	1.3314666666666668	1.0
811.3055087265589	0.10026666666666664	1.3314666666666668	1.0
811.1098857269305	0.09929999999999996	1.362266666666667	1.0
811.1099149202544	0.10276666666666663	1.4655999999999998	1.0
810.9244988592168	0.1041333333333333	1.4792	1.0
810.6232177421965	0.10043333333333329	1.3596000000000001	1.0
810.6232177421965	0.10239999999999996	1.3374666666666668	1.0
810.2365736769493	0.10119999999999996	1.3588000000000002	1.0
809.9395199878121	0.09479999999999997	1.214666666666667	1.0
809.9395199878121	0.09943333333333329	1.2406666666666668	1.0
809.456976332063	0.09593333333333329	1.2370666666666668	1.0
809.456976332063	0.09593333333333329	1.2276	1.0
809.4559513130646	0.09073333333333328	1.2165333333333335	1.0
809.3590204606915	0.09776666666666663	1.2165333333333335	1.0
808.2843939264152	0.0968333333333333	1.2429333333333334	1.0
808.2876332306435	0.09909999999999995	1.2785333333333335	1.0
808.2876332306435	0.10233333333333329	1.3161333333333336	1.0
808.2876332306435	0.09559999999999996	1.257466666666667	1.0
808.0089888849132	0.09909999999999995	1.2998666666666667	1.0
807.8996785586995	0.10379999999999996	1.4022666666666668	1.0
807.9050442726154	0.10146666666666662	1.374	1.0
807.9050442726154	0.09856666666666662	1.3185333333333338	1.0
807.8097081089086	0.10266666666666663	1.3228000000000002	1.0
807.7145556545184	0.10039999999999996	1.345066666666667	1.0
807.420231234072	0.10039999999999996	1.3221333333333336	1.0
807.4200935612453	0.09719999999999995	1.1988000000000003	1.0
807.4200935612453	0.09439999999999996	1.1988000000000003	1.0
806.9404107878203	0.09989999999999996	1.1841333333333335	1.0
807.0342150773737	0.10033333333333329	1.3086666666666669	1.0
806.0750926632815	0.09979999999999996	1.277866666666667	1.0
806.0711286277407	0.10143333333333329	1.2512000000000003	1.0
806.0711286277407	0.10146666666666661	1.2389333333333334	1.0
805.981765567785	0.09823333333333328	1.2433333333333336	1.0
805.9127450581906	0.09896666666666662	1.2394666666666667	1.0
804.9142617307125	0.09456666666666663	1.2081333333333335	1.0
804.731858214714	0.09179999999999996	1.1838666666666668	1.0
804.731858214714	0.0966333333333333	1.2010666666666667	1.0
804.6249052468344	0.0966333333333333	1.1604	1.0
804.6249052468344	0.09389999999999994	1.1604	1.0
804.4381261350665	0.09173333333333329	1.1517333333333335	1.0
804.4382759800105	0.10206666666666663	1.1732	1.0
804.4382759800105	0.0955333333333333	1.2340000000000002	1.0
804.2518943643868	0.09433333333333328	1.1601333333333337	1.0
804.3429572748862	0.09773333333333328	1.1616000000000002	1.0
804.0555970760015	0.09279999999999997	1.1964000000000004	1.0
803.6721317913874	0.0904333333333333	1.1980000000000004	1.0
803.6721317913874	0.09443333333333329	1.2468000000000004	1.0
803.4853709635677	0.09773333333333328	1.2402666666666669	1.0
802.7208553997767	0.09976666666666663	1.2301333333333335	1.0
802.720675292857	0.09976666666666663	1.2906666666666669	1.0
802.6275178826849	0.09966666666666661	1.2906666666666669	1.0
802.6275178826849	0.09806666666666662	1.319066666666667	1.0
802.7217886064417	0.1019333333333333	1.3156000000000003	1.0
802.7217886064417	0.09376666666666662	1.2033333333333334	1.0
801.3899543257355	0.09533333333333328	1.1678666666666666	1.0
801.3803698000445	0.0966333333333333	1.1724	1.0
801.1900230261788	0.09559999999999996	1.1602666666666668	1.0
801.1900230261788	0.09626666666666663	1.1948	1.0
801.1900971193282	0.09376666666666661	1.3041333333333338	1.0
801.189715298901	0.1005333333333333	1.3277333333333334	1.0
801.1004448494107	0.09646666666666663	1.2970666666666668	1.0
801.1004448494107	0.09646666666666663	1.1492000000000002	1.0
801.0981853495626	0.09669999999999995	1.08	1.0
800.9099440681474	0.08859999999999996	1.08	1.0
800.8142330089055	0.09209999999999996	1.1050666666666666	1.0
800.814276710603	0.09436666666666663	1.1528	1.0
800.3372652157148	0.09116666666666662	1.1588	1.0
800.3372652157148	0.09296666666666663	1.1658666666666668	1.0
800.3376083038792	0.09343333333333328	1.1350666666666667	1.0
