wavelength(nm)	flourescence PMT(V)	ti_saph Power (V)	Gain (V)
800.906147713065	0.10219999999999996	1.2449333333333337	1.0
801.0983337083057	0.09296666666666663	1.08	1.0
801.0957842639899	0.09129999999999995	1.0800000000000003	1.0
801.0957842639899	0.08813333333333329	1.0800000000000003	1.0
801.2831614301161	0.09776666666666663	1.2105333333333337	1.0
801.1931069822749	0.09966666666666663	1.284666666666667	1.0
801.2846777293383	0.09959999999999997	1.295066666666667	1.0
801.2846777293383	0.10396666666666664	1.318266666666667	1.0
801.2846777293383	0.09606666666666662	1.1601333333333337	1.0
802.334308044178	0.09453333333333329	1.16	1.0
802.7212130965931	0.09453333333333329	1.1598666666666668	1.0
802.7209589474938	0.09899999999999996	1.2625333333333337	1.0
802.8137907285333	0.10109999999999995	1.2625333333333337	1.0
802.8137907285333	0.09933333333333329	1.2937333333333336	1.0
803.4845573969246	0.09976666666666661	1.2497333333333336	1.0
803.4863652255801	0.09963333333333328	1.2498666666666667	1.0
804.1517045569374	0.09236666666666662	1.1862666666666668	1.0
804.0990343762597	0.0972333333333333	1.1518666666666668	1.0
804.0990343762597	0.09336666666666664	1.152666666666667	1.0
804.2493043086057	0.09339999999999996	1.1618666666666668	1.0
804.2560537147443	0.09939999999999995	1.1704	1.0
804.4374018839818	0.09799999999999995	1.1441333333333334	1.0
804.6270256895003	0.09799999999999995	1.1089333333333335	1.0
804.6270256895003	0.09199999999999996	1.1642666666666668	1.0
804.6245840614309	0.09376666666666662	1.1642666666666668	1.0
804.622860649225	0.09646666666666662	1.161066666666667	1.0
804.624990092481	0.09546666666666663	1.1736000000000002	1.0
804.726609840583	0.09173333333333329	1.1916000000000002	1.0
805.7805882605621	0.0977333333333333	1.234666666666667	1.0
805.7805882605621	0.10119999999999996	1.2840000000000003	1.0
805.9652020864771	0.09556666666666662	1.2782666666666669	1.0
806.0734971145707	0.09859999999999995	1.2969333333333335	1.0
806.0716530602053	0.09706666666666662	1.3129333333333337	1.0
806.244223795866	0.10213333333333328	1.319466666666667	1.0
806.244223795866	0.10213333333333328	1.1956000000000002	1.0
806.6404055843755	0.09689999999999996	1.1636000000000002	1.0
806.9378739006029	0.09603333333333329	1.1636000000000002	1.0
807.0346630188267	0.09603333333333329	1.2389333333333334	1.0
807.5120829876919	0.09719999999999997	1.2492	1.0
807.5120829876919	0.09279999999999995	1.1604	1.0
807.4693992505416	0.09363333333333329	1.16	1.0
807.8090049947897	0.0971333333333333	1.2053333333333336	1.0
807.7103322401958	0.09409999999999996	1.2392	1.0
807.8045901377758	0.09126666666666662	1.2497333333333336	1.0
807.8045901377758	0.0982333333333333	1.3202666666666667	1.0
807.8109496083205	0.10516666666666662	1.3205333333333336	1.0
807.9005752246928	0.10516666666666662	1.242	1.0
807.9023827437767	0.09649999999999995	1.2401333333333335	1.0
808.1030780603844	0.09763333333333328	1.2401333333333335	1.0
808.1920518384887	0.10249999999999995	1.3200000000000003	1.0
808.1920518384887	0.09343333333333328	1.2829333333333337	1.0
808.287289681767	0.09193333333333328	1.1793333333333336	1.0
809.065080742389	0.0909333333333333	1.1988	1.0
809.362811420986	0.09833333333333329	1.245866666666667	1.0
809.3639370728333	0.10453333333333328	1.2989333333333335	1.0
809.3639370728333	0.09929999999999994	1.304266666666667	1.0
809.455915330855	0.09699999999999996	1.263066666666667	1.0
809.5544442159879	0.09686666666666663	1.2296000000000005	1.0
809.8471346733941	0.09686666666666663	1.3045333333333335	1.0
810.2367356589473	0.09926666666666663	1.3200000000000003	1.0
810.2367356589473	0.09909999999999997	1.3200000000000003	1.0
810.2383705231836	0.09649999999999996	1.2229333333333334	1.0
810.6264468372093	0.0998333333333333	1.2869333333333335	1.0
810.6264468372093	0.10129999999999996	1.4196	1.0
811.1079173428634	0.09869999999999997	1.343866666666667	1.0
811.1079173428634	0.1006333333333333	1.3806666666666667	1.0
811.109015255957	0.10386666666666663	1.4790666666666668	1.0
811.1077632342092	0.1029333333333333	1.4762666666666666	1.0
811.3089019104862	0.09959999999999997	1.3744	1.0
811.3098698810546	0.09629999999999996	1.2940000000000003	1.0
811.3098698810546	0.09629999999999996	1.3280000000000003	1.0
811.4095520334374	0.10286666666666662	1.2980000000000003	1.0
811.4991574245706	0.09893333333333329	1.2980000000000003	1.0
811.4094953377415	0.09219999999999996	1.2053333333333334	1.0
811.8011655505244	0.0909333333333333	1.1677333333333335	1.0
811.80113079003	0.0948333333333333	1.16	1.0
811.80113079003	0.09379999999999995	1.1616	1.0
812.6787320247898	0.09463333333333329	1.2257333333333336	1.0
812.67750972782	0.10346666666666662	1.3537333333333335	1.0
813.162390165232	0.0991333333333333	1.3206666666666669	1.0
813.0701554913711	0.10039999999999996	1.2508000000000001	1.0
813.0701554913711	0.09819999999999995	1.2280000000000002	1.0
813.0756703649179	0.09819999999999995	1.2789333333333335	1.0
813.16785381537	0.09559999999999995	1.3853333333333333	1.0
813.16785381537	0.10283333333333329	1.3853333333333333	1.0
814.0438701554423	0.09649999999999995	1.3188000000000004	1.0
814.0438701554423	0.09306666666666663	1.2625333333333337	1.0
814.5319233544468	0.09799999999999996	1.2652	1.0
814.5319233544468	0.09769999999999995	1.3924	1.0
814.7373713970578	0.10176666666666662	1.4171999999999998	1.0
814.7395118678546	0.09863333333333328	1.4649333333333332	1.0
814.7395118678546	0.1045333333333333	1.4658666666666667	1.0
814.7368254993697	0.10199999999999995	1.4626666666666666	1.0
814.7368254993697	0.09909999999999997	1.4089333333333334	1.0
815.1306186264177	0.09049999999999996	1.2568000000000004	1.0
815.1339602356227	0.09049999999999996	1.1984000000000001	1.0
815.3200681582206	0.09463333333333329	1.2986666666666669	1.0
815.3200681582206	0.09699999999999996	1.2986666666666669	1.0
815.318990237005	0.10116666666666663	1.3864000000000003	1.0
816.2110643295836	0.09669999999999995	1.2586666666666668	1.0
816.2068390431365	0.08866666666666663	1.16	1.0
816.8096657362435	0.09059999999999996	1.1601333333333335	1.0
816.8096657362435	0.09506666666666663	1.3166666666666669	1.0
817.001941762954	0.09386666666666663	1.2573333333333334	1.0
817.305833791632	0.09376666666666662	1.3258666666666667	1.0
817.4966038714919	0.09736666666666662	1.3236	1.0
817.4966038714919	0.08729999999999996	1.2097333333333335	1.0
817.4966038714919	0.08729999999999996	1.1962666666666668	1.0
818.1925264992444	0.09146666666666663	1.315866666666667	1.0
818.2868171171455	0.09516666666666662	1.315866666666667	1.0
818.2868171171455	0.09506666666666663	1.2596	1.0
818.2909998643278	0.08956666666666661	1.2376000000000003	1.0
818.5010800109343	0.09203333333333329	1.2376	1.0
818.5010800109343	0.09656666666666662	1.3085333333333335	1.0
818.5906179432354	0.08979999999999996	1.2400000000000002	1.0
818.5896166835508	0.08629999999999996	1.2313333333333336	1.0
819.3887279767944	0.08773333333333329	1.2381333333333335	1.0
819.7864717430684	0.09619999999999997	1.3286666666666669	1.0
819.7864717430684	0.09126666666666662	1.3505333333333336	1.0
819.7861906763984	0.09449999999999995	1.3853333333333333	1.0
819.7899560999558	0.09449999999999995	1.3545333333333338	1.0
820.4924654472693	0.0909333333333333	1.3480000000000003	1.0
820.4866214321052	0.09273333333333329	1.3480000000000003	1.0
820.4866214321052	0.09346666666666661	1.3897333333333335	1.0
820.4522629382343	0.09056666666666663	1.333466666666667	1.0
821.0856596884614	0.09169999999999998	1.3244000000000002	1.0
821.0856502577336	0.09546666666666663	1.4106666666666667	1.0
821.0856502577336	0.09589999999999996	1.4443999999999997	1.0
821.0856502577336	0.0906333333333333	1.3720000000000003	1.0
821.5810823458492	0.08759999999999996	1.3941333333333334	1.0
821.8899115420878	0.0930333333333333	1.4781333333333333	1.0
821.8912055168801	0.09116666666666662	1.4489333333333332	1.0
821.8856540779967	0.09116666666666662	1.4414666666666665	1.0
821.8856540779967	0.08779999999999996	1.4066666666666667	1.0
821.8856540779967	0.09036666666666662	1.4066666666666667	1.0
822.2921163462578	0.08926666666666662	1.3749333333333336	1.0
822.1860637610431	0.08393333333333329	1.3204000000000005	1.0
822.2910816536103	0.08503333333333328	1.3200000000000003	1.0
822.2931405648089	0.09369999999999996	1.3048000000000002	1.0
822.2931405648089	0.08326666666666661	1.3206666666666669	1.0
822.4834972652457	0.08713333333333328	1.4076000000000002	1.0
823.4986782782346	0.08473333333333329	1.48	1.0
823.490200876177	0.08943333333333328	1.48	1.0
823.4981691401429	0.08816666666666663	1.4798666666666667	1.0
823.4981691401429	0.08816666666666663	1.4130666666666667	1.0
823.4981691401429	0.0873666666666666	1.4290666666666667	1.0
824.0963517774558	0.0822333333333333	1.4290666666666667	1.0
824.3070687461554	0.08283333333333329	1.372266666666667	1.0
824.3091714158134	0.08816666666666662	1.3558666666666668	1.0
824.709185392187	0.08209999999999996	1.2785333333333335	1.0
824.709185392187	0.08189999999999996	1.3212000000000002	1.0
824.810802063401	0.08739999999999996	1.4558666666666666	1.0
824.8108212226637	0.08156666666666662	1.3113333333333337	1.0
825.211302141142	0.08079999999999996	1.3248000000000002	1.0
825.211302141142	0.08283333333333329	1.3504000000000005	1.0
825.211302141142	0.0843333333333333	1.4318666666666664	1.0
825.4549509627085	0.0843333333333333	1.491866666666667	1.0
825.7102289041342	0.08623333333333329	1.4796	1.0
825.6152773365825	0.08549999999999995	1.4796	1.0
825.7117046116226	0.08283333333333329	1.4469333333333332	1.0
825.7117046116226	0.08093333333333329	1.3962666666666665	1.0
826.1178903230757	0.08513333333333328	1.321866666666667	1.0
826.1204755588892	0.08543333333333328	1.4817333333333333	1.0
826.8327162800043	0.08263333333333328	1.4990666666666668	1.0
826.8327162800043	0.08149999999999996	1.3269333333333335	1.0
826.8327162800043	0.07769999999999996	1.3320000000000003	1.0
827.0292221370335	0.08056666666666662	1.3938666666666668	1.0
827.3418332977541	0.0824333333333333	1.3572000000000002	1.0
827.24333791868	0.0824333333333333	1.3230666666666668	1.0
827.24333791868	0.08296666666666662	1.3562666666666667	1.0
828.0462816210047	0.08226666666666661	1.3562666666666667	1.0
828.0462816210047	0.08559999999999995	1.4770666666666665	1.0
828.2481927538216	0.09143333333333328	1.4874666666666665	1.0
828.5580897561838	0.08866666666666663	1.504	1.0
828.6581173611802	0.08393333333333329	1.4092	1.0
828.8559077608614	0.08236666666666662	1.3588000000000002	1.0
828.8559077608614	0.07779999999999995	1.4030666666666665	1.0
829.264574231066	0.08079999999999996	1.4790666666666665	1.0
829.2739362397551	0.08176666666666663	1.3985333333333334	1.0
829.3772432905906	0.07903333333333329	1.4125333333333332	1.0
829.4775998923735	0.08236666666666662	1.4914666666666667	1.0
829.4775998923735	0.08236666666666662	1.4998666666666667	1.0
829.4775998923735	0.08183333333333329	1.4216	1.0
829.477625736963	0.08163333333333328	1.4216	1.0
829.9818548488289	0.07649999999999996	1.3418666666666668	1.0
830.0809389457893	0.08573333333333329	1.4778666666666667	1.0
830.3969142221886	0.07626666666666662	1.3885333333333336	1.0
830.3969142221886	0.07919999999999995	1.4421333333333333	1.0
830.3947449783635	0.07969999999999994	1.5116	1.0
830.5970237636484	0.07966666666666662	1.4798666666666669	1.0
830.9099707497949	0.07989999999999994	1.3858666666666668	1.0
830.9099707497949	0.07909999999999995	1.4593333333333331	1.0
830.9099707497949	0.08373333333333328	1.5596000000000003	1.0
831.2161833007968	0.08373333333333328	1.5453333333333334	1.0
831.2161833007968	0.08333333333333329	1.4248	1.0
831.727158414946	0.07976666666666662	1.4248	1.0
832.1378893773888	0.08246666666666662	1.3942666666666668	1.0
832.1378893773888	0.07906666666666662	1.4241333333333335	1.0
832.1378893773888	0.0841333333333333	1.463733333333333	1.0
832.6570384251423	0.08099999999999996	1.4362666666666664	1.0
832.6500368705606	0.08193333333333327	1.48	1.0
832.9633033720362	0.0822333333333333	1.4397333333333333	1.0
832.9633033720362	0.08686666666666663	1.4034666666666666	1.0
832.9627849040795	0.0871333333333333	1.396	1.0
832.5738395655565	0.08993333333333328	1.3452000000000002	1.0
833.3780521207714	0.08993333333333328	1.3936000000000002	1.0
833.3780521207714	0.0930333333333333	1.4757333333333331	1.0
833.4772414047217	0.0954333333333333	1.4757333333333331	1.0
833.4772414047217	0.09279999999999997	1.4708	1.0
833.8884471873862	0.09923333333333328	1.213466666666667	1.0
833.8884471873862	0.10296666666666665	1.1960000000000002	1.0
834.3064744069774	0.1039333333333333	1.1962666666666668	1.0
834.8135345108075	0.10419999999999996	0.9482666666666667	1.0
834.8135345108075	0.08799999999999997	0.4652000000000001	1.0
834.7159023376628	0.08389999999999996	0.2758666666666669	1.0
834.8167464375031	0.0753333333333333	0.18200000000000016	1.0
835.2328692509199	0.060966666666666613	0.0438666666666667	1.0
835.3334271534401	0.05723333333333327	-0.0006666666666666673	1.0
835.3334271534401	0.05723333333333327	-0.00773333333333334	1.0
835.3334271534401	0.056066666666666605	-0.02080000000000002	1.0
835.7512204809916	0.05109999999999994	-0.02080000000000002	1.0
836.273908936585	0.04953333333333327	-0.023333333333333355	1.0
835.6847355676637	0.0495666666666666	-0.02320000000000002	1.0
836.5824548942669	0.05213333333333327	-0.02666666666666669	1.0
836.5824548942669	0.052833333333333274	-0.02680000000000002	1.0
836.5827389935729	0.05163333333333327	-0.02506666666666669	1.0
836.9937309894754	0.055066666666666604	-0.02626666666666669	1.0
836.7958414661782	0.053133333333333276	-0.02626666666666669	1.0
837.4202085565744	0.051999999999999935	-0.02666666666666669	1.0
837.4202085565744	0.05393333333333327	-0.026000000000000023	1.0
837.4170407944671	0.05393333333333327	-0.02506666666666669	1.0
837.4102839717226	0.05359999999999993	-0.026000000000000023	1.0
837.8348725764077	0.05563333333333328	-0.026000000000000023	1.0
837.7309239955367	0.05279999999999994	-0.02666666666666669	1.0
837.7275697696238	0.0532666666666666	-0.02853333333333336	1.0
837.7275697696238	0.055233333333333266	-0.02813333333333336	1.0
838.14753748455	0.05139999999999993	-0.025333333333333357	1.0
838.1467686264225	0.05163333333333327	-0.02746666666666669	1.0
838.5646954003915	0.05353333333333327	-0.02586666666666669	1.0
838.9823967088296	0.0536666666666666	-0.02546666666666669	1.0
838.9823967088296	0.05446666666666661	-0.026933333333333358	1.0
839.0794189300353	0.05003333333333327	-0.024800000000000023	1.0
839.2877932403553	0.05003333333333327	-0.02746666666666669	1.0
839.5028848292626	0.05256666666666661	-0.02520000000000002	1.0
839.5016738280603	0.05063333333333327	-0.02520000000000002	1.0
839.5016738280603	0.05369999999999994	-0.02506666666666669	1.0
839.9193557189902	0.048566666666666605	-0.02160000000000002	1.0
839.9193557189902	0.052433333333333276	-0.02360000000000002	1.0
840.4440709728559	0.052533333333333265	-0.026400000000000024	1.0
840.4430024762291	0.05323333333333327	-0.024400000000000022	1.0
840.4430024762291	0.0530666666666666	-0.028000000000000025	1.0
840.863109299663	0.055499999999999945	-0.027200000000000023	1.0
840.8669693505753	0.05166666666666661	-0.02386666666666669	1.0
840.8630877215389	0.055399999999999935	-0.026933333333333358	1.0
840.8630877215389	0.055399999999999935	-0.027066666666666694	1.0
841.4943943653402	0.05589999999999994	-0.024800000000000023	1.0
841.4943943653402	0.05373333333333328	-0.024800000000000023	1.0
841.4944589504765	0.052533333333333265	-0.024800000000000023	1.0
841.7029178290071	0.04803333333333326	-0.02360000000000002	1.0
841.8062010557111	0.0519666666666666	-0.026533333333333357	1.0
842.230833837797	0.052699999999999934	-0.022133333333333352	1.0
842.230833837797	0.057899999999999945	-0.025600000000000022	1.0
842.1913125836732	0.055366666666666606	-0.025600000000000022	1.0
842.5521934970255	0.05279999999999994	-0.024800000000000023	1.0
842.9695821389654	0.05153333333333327	-0.02173333333333335	1.0
843.0727144271823	0.053899999999999934	-0.024666666666666687	1.0
843.0727144271823	0.053899999999999934	-0.026400000000000024	1.0
843.0771058134541	0.0560666666666666	-0.025333333333333357	1.0
843.6003177333224	0.0515666666666666	-0.025333333333333357	1.0
843.6003177333224	0.056666666666666594	-0.026933333333333358	1.0
844.4484258779647	0.0524666666666666	-0.02666666666666669	1.0
844.4466793492616	0.052533333333333265	-0.023466666666666688	1.0
844.4466793492616	0.050466666666666604	-0.02160000000000002	1.0
844.668136332964	0.052533333333333265	-0.02546666666666669	1.0
844.769762212452	0.0527666666666666	-0.023066666666666687	1.0
844.8707776537926	0.05059999999999994	-0.02426666666666669	1.0
844.7722008210102	0.053899999999999934	-0.02813333333333336	1.0
844.7722008210102	0.05459999999999994	-0.025600000000000022	1.0
843.0756086890044	0.05256666666666661	-0.026933333333333358	1.0
843.0756086890044	0.051666666666666604	-0.024933333333333356	1.0
843.0147579046236	0.050466666666666604	-0.026400000000000024	1.0
842.4486041794014	0.054533333333333274	-0.026133333333333356	1.0
842.0235017177245	0.053633333333333276	-0.029066666666666692	1.0
842.0239034804722	0.0532666666666666	-0.027066666666666694	1.0
841.8502716760433	0.0532666666666666	-0.02626666666666669	1.0
841.8502716760433	0.0510666666666666	-0.02626666666666669	1.0
841.7023309151062	0.048099999999999934	-0.02586666666666669	1.0
841.2911394417008	0.052999999999999936	-0.02853333333333336	1.0
841.2911394417008	0.05199999999999994	-0.026533333333333357	1.0
841.2903082890311	0.05193333333333327	-0.027333333333333355	1.0
841.2903082890311	0.05576666666666661	-0.030000000000000023	1.0
840.8722787145449	0.05503333333333327	-0.02813333333333336	1.0
840.8681853444513	0.04883333333333326	-0.023466666666666688	1.0
840.8684224184401	0.05589999999999994	-0.02666666666666669	1.0
840.4440655519617	0.053199999999999935	-0.025333333333333357	1.0
840.4440655519617	0.05323333333333328	-0.02853333333333336	1.0
840.5425086129109	0.05323333333333328	-0.024666666666666687	1.0
840.3448902483296	0.05003333333333327	-0.026400000000000024	1.0
839.8187319315923	0.053366666666666604	-0.026400000000000024	1.0
839.5077122420528	0.05353333333333327	-0.026400000000000024	1.0
839.3002768374562	0.052433333333333276	-0.02546666666666669	1.0
839.3002768374562	0.05533333333333327	-0.02813333333333336	1.0
839.083355869353	0.05039999999999993	-0.028000000000000025	1.0
838.9822419177078	0.053166666666666605	-0.024400000000000022	1.0
838.5596264934925	0.05469999999999994	-0.02666666666666669	1.0
838.3485208892653	0.051833333333333266	-0.024800000000000023	1.0
838.3485208892653	0.05636666666666661	-0.026400000000000024	1.0
838.1468083923795	0.05253333333333327	-0.022266666666666688	1.0
837.7308395186338	0.05253333333333327	-0.024800000000000023	1.0
837.5130367021006	0.051799999999999936	-0.02626666666666669	1.0
837.4192227827479	0.05159999999999994	-0.02626666666666669	1.0
837.4192227827479	0.05013333333333327	-0.022266666666666688	1.0
837.4181612396314	0.05283333333333327	-0.025600000000000022	1.0
837.1059454441051	0.0532666666666666	-0.027600000000000027	1.0
837.0504878019964	0.04953333333333327	-0.02360000000000002	1.0
836.8993424114834	0.05349999999999994	-0.027066666666666694	1.0
836.5828174159572	0.05769999999999994	-0.025333333333333357	1.0
836.5828174159572	0.051699999999999934	-0.024133333333333354	1.0
836.5835229782444	0.05439999999999994	-0.027200000000000023	1.0
836.582030950179	0.0522666666666666	-0.02626666666666669	1.0
836.0658447551739	0.0522666666666666	-0.02666666666666669	1.0
836.0634717822803	0.052166666666666604	-0.026400000000000024	1.0
836.0634717822803	0.0527666666666666	-0.026400000000000024	1.0
835.7627594824914	0.0518666666666666	-0.02586666666666669	1.0
835.7494270932064	0.05473333333333328	-0.025733333333333355	1.0
835.6466954896057	0.05073333333333327	-0.024800000000000023	1.0
835.2368572042072	0.05359999999999993	-0.02173333333333335	1.0
835.2368572042072	0.06196666666666661	0.010533333333333342	1.0
835.2322952683935	0.05956666666666661	0.018266666666666685	1.0
834.8223569935021	0.06916666666666661	0.1376000000000001	1.0
834.7162691478043	0.07803333333333329	0.24933333333333357	1.0
834.7162691478043	0.09269999999999996	0.4846666666666668	1.0
834.7162691478043	0.09269999999999996	1.0776	1.0
834.3024467984314	0.1074333333333333	1.0989333333333333	1.0
833.9912869000399	0.11099999999999995	1.0989333333333333	1.0
833.8908177949528	0.10056666666666662	1.277466666666667	1.0
833.473711298672	0.09463333333333329	1.2397333333333336	1.0
833.475601579516	0.10009999999999995	1.4424	1.0
833.475601579516	0.09546666666666663	1.48	1.0
833.3698313679887	0.09023333333333329	1.48	1.0
832.9631749340887	0.09246666666666663	1.48	1.0
832.9544312276926	0.08686666666666663	1.4001333333333335	1.0
832.9621268007402	0.08526666666666663	1.4305333333333332	1.0
832.9621268007402	0.08526666666666663	1.4076	1.0
832.9621268007402	0.08096666666666662	1.4789333333333332	1.0
832.553861230571	0.07763333333333328	1.4789333333333332	1.0
832.2372697354574	0.08203333333333328	1.48	1.0
831.7297831240629	0.07443333333333328	1.398	1.0
831.7297831240629	0.07759999999999996	1.3276000000000003	1.0
831.4750720617341	0.07656666666666662	1.3201333333333336	1.0
831.5184149634377	0.07769999999999996	1.4318666666666666	1.0
831.2144192062234	0.08209999999999995	1.5465333333333335	1.0
831.214903581986	0.0862333333333333	1.4358666666666666	1.0
830.8090601155951	0.07936666666666661	1.4447999999999999	1.0
830.8090601155951	0.07866666666666662	1.3885333333333336	1.0
830.3954585733582	0.07866666666666662	1.4043999999999999	1.0
830.3917573347104	0.07993333333333329	1.48	1.0
830.1846968148108	0.0798333333333333	1.48	1.0
830.0841897256129	0.07976666666666662	1.5013333333333334	1.0
830.0841897256129	0.08459999999999997	1.4910666666666665	1.0
829.9847771768465	0.07863333333333329	1.4798666666666667	1.0
829.475807827644	0.0823333333333333	1.393066666666667	1.0
829.4742520065664	0.07936666666666663	1.3296000000000003	1.0
829.2731105124773	0.08079999999999994	1.3924000000000003	1.0
829.2731105124773	0.08019999999999995	1.4542666666666666	1.0
829.2645552750241	0.08056666666666662	1.3914666666666669	1.0
829.2645552750241	0.07699999999999996	1.4243999999999999	1.0
829.2645552750241	0.0798333333333333	1.4627999999999999	1.0
828.6598828390034	0.0798333333333333	1.4204	1.0
828.5641879656256	0.08199999999999996	1.4686666666666666	1.0
828.5641879656256	0.08109999999999995	1.4686666666666666	1.0
828.0394584047019	0.08093333333333329	1.4878666666666667	1.0
827.7455921345825	0.08726666666666662	1.489866666666667	1.0
827.3361659454472	0.08129999999999996	1.4814666666666665	1.0
827.3360443238655	0.0753333333333333	1.4658666666666667	1.0
827.3360443238655	0.08009999999999996	1.3764000000000003	1.0
827.0338581388329	0.07909999999999995	1.3966666666666667	1.0
827.0345420641117	0.08453333333333328	1.3973333333333335	1.0
826.52833195257	0.08356666666666662	1.3540000000000003	1.0
826.1150697515484	0.07779999999999995	1.4692	1.0
826.1150697515484	0.07779999999999995	1.4842666666666666	1.0
825.7138293434341	0.07459999999999996	1.3485333333333336	1.0
825.6169381140039	0.0822333333333333	1.3485333333333336	1.0
825.7139057931538	0.08406666666666661	1.37	1.0
825.6187877121291	0.07749999999999996	1.4045333333333334	1.0
825.6187877121291	0.08556666666666661	1.48	1.0
825.3084863191452	0.08566666666666663	1.4810666666666668	1.0
825.3115302180053	0.08339999999999996	1.478133333333333	1.0
825.2102483578165	0.08216666666666661	1.4412	1.0
824.8074566188092	0.08186666666666662	1.3249333333333335	1.0
824.8074566188092	0.08209999999999996	1.4421333333333333	1.0
824.8074566188092	0.08236666666666662	1.3190666666666668	1.0
824.3038714940072	0.08236666666666662	1.2665333333333335	1.0
824.3062649430432	0.08259999999999995	1.3950666666666667	1.0
823.8993487795339	0.08266666666666662	1.3950666666666667	1.0
823.8977665936826	0.08713333333333328	1.404	1.0
823.8977665936826	0.08419999999999994	1.393066666666667	1.0
823.4926975848434	0.08979999999999996	1.48	1.0
823.4926975848434	0.09176666666666662	1.48	1.0
822.4792584739777	0.08816666666666663	1.4801333333333333	1.0
822.1897621730176	0.08533333333333329	1.3756000000000002	1.0
822.1897621730176	0.08699999999999995	1.3201333333333336	1.0
822.2910001026383	0.08779999999999996	1.3206666666666669	1.0
822.2910001026383	0.07869999999999995	1.3528000000000002	1.0
821.98568378739	0.0861333333333333	1.3818666666666668	1.0
821.8912541479226	0.0861333333333333	1.4167999999999998	1.0
821.891348041766	0.08439999999999995	1.4009333333333331	1.0
821.891348041766	0.08769999999999996	1.4009333333333331	1.0
821.7944957046844	0.08879999999999995	1.3998666666666668	1.0
821.5853720168476	0.08486666666666662	1.401066666666667	1.0
821.3907118101355	0.0928333333333333	1.3949333333333334	1.0
821.086659472042	0.08963333333333329	1.4002666666666668	1.0
821.086659472042	0.08509999999999995	1.4257333333333333	1.0
821.0859645847042	0.09039999999999995	1.4246666666666665	1.0
820.5862527867538	0.09123333333333329	1.3940000000000001	1.0
820.5905158671922	0.0884333333333333	1.375466666666667	1.0
819.883214614042	0.0903333333333333	1.3833333333333335	1.0
819.883214614042	0.0903333333333333	1.3225333333333336	1.0
819.7863689135818	0.08803333333333328	1.3852000000000002	1.0
819.7876354273299	0.09216666666666663	1.3852000000000002	1.0
818.690667746322	0.08873333333333329	1.3986666666666667	1.0
818.5926304417324	0.09256666666666663	1.3370666666666668	1.0
818.5930674596465	0.08876666666666663	1.3277333333333334	1.0
818.5930674596465	0.08999999999999996	1.2376000000000003	1.0
818.5000226701109	0.08826666666666663	1.2349333333333334	1.0
818.2847024221497	0.09523333333333328	1.2753333333333337	1.0
818.2847024221497	0.09043333333333328	1.2568000000000004	1.0
818.1971528081286	0.09453333333333329	1.3173333333333337	1.0
818.1971528081286	0.09433333333333328	1.3637333333333335	1.0
818.1971528081286	0.09496666666666663	1.3786666666666667	1.0
817.7939857601906	0.09496666666666663	1.2296000000000005	1.0
817.401378300509	0.08873333333333328	1.1772000000000002	1.0
817.495039382755	0.09199999999999996	1.1772000000000002	1.0
817.495039382755	0.09206666666666662	1.2468000000000004	1.0
817.495039382755	0.09399999999999996	1.2936000000000003	1.0
816.9055097293525	0.09206666666666662	1.3202666666666667	1.0
816.2108448707414	0.09459999999999996	1.3201333333333336	1.0
816.213136193068	0.09229999999999995	1.1601333333333337	1.0
816.213136193068	0.08646666666666662	1.1764000000000003	1.0
816.213136193068	0.09173333333333329	1.3909333333333336	1.0
815.3235367885834	0.09929999999999996	1.3952000000000002	1.0
815.3225064967648	0.09643333333333329	1.302266666666667	1.0
814.7373957811286	0.09643333333333329	1.2538666666666667	1.0
814.7382972017202	0.09489999999999994	1.4409333333333332	1.0
814.7382972017202	0.10106666666666662	1.4409333333333332	1.0
814.7392590844416	0.09793333333333329	1.4589333333333332	1.0
814.7393625060197	0.10226666666666663	1.4473333333333331	1.0
814.5319932231423	0.09919999999999997	1.4152	1.0
814.5353586083089	0.10419999999999997	1.3966666666666667	1.0
814.5353586083089	0.09476666666666662	1.354266666666667	1.0
814.0440977135614	0.0955333333333333	1.2413333333333334	1.0
814.0451036382232	0.09606666666666662	1.240666666666667	1.0
813.1613754470997	0.09396666666666663	1.344	1.0
813.070368554112	0.09676666666666663	1.3977333333333335	1.0
813.070368554112	0.09676666666666663	1.3888	1.0
813.1625198141717	0.0982333333333333	1.3433333333333337	1.0
812.860046062782	0.09653333333333329	1.3433333333333337	1.0
811.8021321963051	0.09656666666666662	1.3860000000000001	1.0
811.7979870663443	0.09949999999999996	1.3709333333333336	1.0
811.8021114436517	0.09876666666666663	1.3260000000000003	1.0
811.8021114436517	0.09853333333333329	1.2893333333333337	1.0
811.5009357909673	0.0913333333333333	1.1601333333333335	1.0
811.4071325439627	0.09629999999999997	1.217066666666667	1.0
811.4040098668311	0.09829999999999996	1.2824	1.0
811.4077663582066	0.10286666666666662	1.358666666666667	1.0
811.4077663582066	0.09939999999999996	1.3545333333333338	1.0
811.4077663582066	0.10243333333333329	1.4322666666666666	1.0
811.10779228581	0.10243333333333329	1.4797333333333331	1.0
811.1123279392679	0.10379999999999995	1.4797333333333331	1.0
810.6245494512796	0.10076666666666662	1.4704	1.0
810.6245494512796	0.09986666666666662	1.3069333333333335	1.0
810.6245549839948	0.09746666666666663	1.3493333333333335	1.0
810.4176165198213	0.09786666666666663	1.3369333333333335	1.0
810.0290355947085	0.09886666666666662	1.2432	1.0
809.4537102147999	0.09646666666666662	1.2769333333333335	1.0
809.4537102147999	0.09626666666666663	1.2268000000000003	1.0
809.4537906280156	0.09613333333333329	1.1708000000000005	1.0
809.4548219263456	0.09679999999999996	1.2153333333333334	1.0
809.1591876214477	0.10483333333333329	1.2238666666666669	1.0
808.2855161378114	0.10483333333333329	1.2493333333333336	1.0
808.2855161378114	0.09676666666666663	1.2304000000000002	1.0
808.1971380598776	0.09513333333333328	1.2304000000000002	1.0
808.0105512317117	0.09256666666666663	1.2176000000000002	1.0
807.9005733891925	0.1012333333333333	1.2997333333333336	1.0
807.9005733891925	0.0973333333333333	1.2926666666666669	1.0
807.6695430057129	0.10156666666666661	1.316666666666667	1.0
807.6695430057129	0.09636666666666663	1.3200000000000003	1.0
807.8046025784221	0.09889999999999996	1.3168000000000002	1.0
807.7112897688518	0.09779999999999997	1.3188000000000004	1.0
807.5132837182177	0.09639999999999996	1.2412000000000003	1.0
807.031101996268	0.09893333333333329	1.2049333333333334	1.0
807.031101996268	0.09893333333333329	1.248666666666667	1.0
806.9369947791502	0.09786666666666663	1.2358666666666671	1.0
806.2063489899283	0.09653333333333329	1.2358666666666671	1.0
806.3580666961002	0.10229999999999996	1.2782666666666667	1.0
806.1437702590131	0.09699999999999996	1.3349333333333335	1.0
806.1437702590131	0.09676666666666663	1.2432	1.0
805.7801165273494	0.0943333333333333	1.2153333333333334	1.0
804.8207928675203	0.09673333333333328	1.2606666666666668	1.0
804.8243665620215	0.0982333333333333	1.2317333333333336	1.0
804.6260276229896	0.09556666666666662	1.2340000000000002	1.0
804.6260276229896	0.09533333333333328	1.1658666666666668	1.0
804.6264798954946	0.09906666666666662	1.1608	1.0
804.626378275014	0.09906666666666662	1.1369333333333336	1.0
804.43720820804	0.09736666666666662	1.1600000000000001	1.0
804.4379553762609	0.09646666666666663	1.1600000000000001	1.0
804.4379553762609	0.09699999999999996	1.1600000000000001	1.0
804.566850045043	0.08903333333333328	1.1597333333333335	1.0
804.3471220516556	0.09639999999999997	1.1592000000000002	1.0
804.0590975697859	0.0957333333333333	1.171066666666667	1.0
803.9583687085699	0.09583333333333328	1.2140000000000002	1.0
803.9583687085699	0.09593333333333329	1.2364000000000002	1.0
803.383377835299	0.09756666666666662	1.2393333333333336	1.0
802.9026672863272	0.09316666666666663	1.2008000000000003	1.0
802.7220854371724	0.09389999999999996	1.2102666666666668	1.0
802.6226545992301	0.09679999999999996	1.2705333333333335	1.0
802.6226545992301	0.09679999999999996	1.267466666666667	1.0
802.6226545992301	0.0986333333333333	1.267466666666667	1.0
