wavelength(nm)	flourescence PMT(V)	ti_saph Power (V)	Gain (V)
800.8114566396882	0.09666666666666662	1.2244000000000002	1.0
800.9065612313334	0.09566666666666662	1.16	1.0
800.9065612313334	0.09566666666666662	1.1049333333333333	1.0
801.0994493808497	0.08946666666666662	1.1049333333333333	1.0
801.095393933508	0.08536666666666663	1.0800000000000003	1.0
801.1900035344488	0.09286666666666663	1.0993333333333335	1.0
801.2794022088246	0.09553333333333329	1.1618666666666666	1.0
801.2794022088246	0.09873333333333328	1.3081333333333336	1.0
801.2428140654824	0.0972333333333333	1.310266666666667	1.0
801.3899905918938	0.09036666666666662	1.1700000000000002	1.0
801.3771869431164	0.08893333333333328	1.1596	1.0
801.3771869431164	0.08946666666666662	1.1600000000000001	1.0
801.3771869431164	0.09069999999999996	1.1593333333333335	1.0
802.7188051544006	0.09379999999999995	1.2692	1.0
802.7202233697278	0.09379999999999995	1.3200000000000003	1.0
802.8140841709508	0.09979999999999997	1.3200000000000003	1.0
803.3849813673369	0.09869999999999995	1.3100000000000003	1.0
803.3849813673369	0.09736666666666662	1.2380000000000002	1.0
803.9638461168944	0.09853333333333329	1.296666666666667	1.0
804.3699044820457	0.09643333333333329	1.295066666666667	1.0
804.3436329658253	0.09866666666666662	1.1936000000000002	1.0
804.3430037603326	0.0964333333333333	1.1708000000000003	1.0
804.3430037603326	0.09729999999999997	1.1674666666666667	1.0
804.3468883042045	0.09666666666666664	1.1601333333333337	1.0
804.3468883042045	0.09079999999999996	1.1569333333333334	1.0
804.627946334312	0.09646666666666663	1.143866666666667	1.0
804.6353771049927	0.09646666666666663	1.1581333333333335	1.0
804.6353771049927	0.09693333333333329	1.1581333333333335	1.0
804.6297872543068	0.10223333333333329	1.1601333333333335	1.0
804.86930407416	0.09766666666666664	1.1616000000000002	1.0
804.8285636293748	0.09566666666666662	1.2342666666666668	1.0
805.8780670359399	0.0963333333333333	1.2141333333333335	1.0
805.8780670359399	0.09796666666666663	1.2241333333333335	1.0
806.0705079610324	0.0976333333333333	1.297866666666667	1.0
806.0694782727417	0.1017333333333333	1.3196000000000003	1.0
806.0694782727417	0.10309999999999996	1.3192000000000004	1.0
806.9414154844796	0.10029999999999996	1.2381333333333335	1.0
806.9414154844796	0.09539999999999996	1.1941333333333335	1.0
806.9402313737453	0.09539999999999996	1.2101333333333335	1.0
807.0299132005855	0.09806666666666662	1.2226666666666668	1.0
807.4222859459369	0.09653333333333329	1.2226666666666668	1.0
807.5144840705136	0.09333333333333328	1.1602666666666668	1.0
807.5144840705136	0.09459999999999996	1.16	1.0
807.5144840705136	0.09413333333333329	1.1605333333333336	1.0
807.8100231039913	0.09149999999999996	1.2394666666666667	1.0
807.810076517379	0.10096666666666662	1.3202666666666667	1.0
807.9033924393432	0.0991333333333333	1.3249333333333335	1.0
807.9033924393432	0.09706666666666662	1.3172000000000004	1.0
807.902904652367	0.09839999999999996	1.2861333333333334	1.0
807.900004994947	0.09693333333333327	1.2373333333333334	1.0
808.1979287795317	0.09693333333333327	1.2372000000000003	1.0
808.1982056896192	0.09353333333333329	1.2366666666666668	1.0
808.1982056896192	0.09539999999999996	1.2366666666666668	1.0
808.1982056896192	0.09129999999999995	1.1612	1.0
809.4537127041539	0.09346666666666661	1.1952000000000003	1.0
809.4537008789091	0.10023333333333329	1.287066666666667	1.0
809.4557174317088	0.09969999999999997	1.2696000000000003	1.0
809.4557174317088	0.09209999999999996	1.2456000000000003	1.0
809.5492777726676	0.09589999999999996	1.2274666666666671	1.0
809.8450348325886	0.09883333333333329	1.2345333333333335	1.0
810.230097924927	0.09363333333333329	1.3017333333333336	1.0
810.230097924927	0.09593333333333329	1.1645333333333336	1.0
810.230097924927	0.10186666666666662	1.3862666666666668	1.0
810.7194931403027	0.10186666666666662	1.340666666666667	1.0
811.1067515154036	0.09916666666666663	1.3776000000000002	1.0
811.1067549213025	0.10123333333333329	1.3776000000000002	1.0
811.1077642232775	0.09789999999999996	1.48	1.0
811.1077642232775	0.1075666666666666	1.48	1.0
811.1068010535399	0.10606666666666661	1.4759999999999998	1.0
811.309824270459	0.10059999999999995	1.4146666666666665	1.0
811.4084798690969	0.1043333333333333	1.3994666666666669	1.0
811.5017965299833	0.0968333333333333	1.3402666666666667	1.0
811.5017965299833	0.09903333333333329	1.273466666666667	1.0
811.4069029917405	0.09056666666666663	1.1821333333333337	1.0
811.7989292442604	0.09319999999999995	1.1618666666666668	1.0
811.8022731629632	0.09319999999999995	1.2009333333333336	1.0
812.6783811610601	0.09396666666666663	1.2009333333333336	1.0
812.6783811610601	0.09919999999999997	1.243466666666667	1.0
812.6801795181333	0.09963333333333328	1.3808000000000002	1.0
813.0678742680211	0.09509999999999996	1.3201333333333336	1.0
813.0682203896773	0.09389999999999997	1.2686666666666668	1.0
813.1647055865446	0.1001333333333333	1.3233333333333335	1.0
813.1647055865446	0.10106666666666662	1.4218666666666664	1.0
813.1647055865446	0.09949999999999996	1.3197333333333336	1.0
814.0447222851874	0.09289999999999997	1.3164000000000002	1.0
814.5391818164848	0.09289999999999997	1.3157333333333339	1.0
814.7384084229091	0.09596666666666662	1.3901333333333337	1.0
814.7384084229091	0.09596666666666662	1.4129333333333334	1.0
814.739195140922	0.09749999999999995	1.4745333333333333	1.0
814.7392848461517	0.09773333333333328	1.4745333333333333	1.0
814.737383594526	0.0930333333333333	1.4785333333333333	1.0
814.7374006291684	0.10273333333333329	1.4761333333333333	1.0
814.7374006291684	0.10646666666666663	1.4758666666666667	1.0
814.7376970729564	0.10039999999999996	1.437733333333333	1.0
815.3191012761142	0.09749999999999995	1.3121333333333336	1.0
815.3201824073349	0.0969333333333333	1.3596000000000001	1.0
815.3243557487248	0.1020333333333333	1.3916000000000002	1.0
815.3243557487248	0.10023333333333329	1.3789333333333336	1.0
816.2067573443603	0.0928333333333333	1.2196000000000002	1.0
816.2089894156985	0.08903333333333328	1.1609333333333336	1.0
816.9976130902228	0.08903333333333328	1.3200000000000003	1.0
816.8088753510374	0.09646666666666662	1.3200000000000003	1.0
817.399031864919	0.09056666666666663	1.3200000000000003	1.0
817.399031864919	0.09673333333333328	1.3201333333333336	1.0
817.4010013311952	0.09276666666666662	1.3814666666666668	1.0
817.499378275381	0.09949999999999996	1.2654666666666667	1.0
817.499378275381	0.0910333333333333	1.2198666666666669	1.0
817.499378275381	0.09136666666666664	1.327866666666667	1.0
818.1922680423688	0.0929333333333333	1.3765333333333336	1.0
818.2944739289201	0.09159999999999996	1.3200000000000003	1.0
818.3310094510897	0.08573333333333329	1.239866666666667	1.0
818.5961379291235	0.08573333333333329	1.2624000000000002	1.0
818.5961379291235	0.08919999999999996	1.315866666666667	1.0
818.5961379291235	0.08569999999999996	1.315866666666667	1.0
818.5936237288292	0.09009999999999996	1.2652	1.0
818.5936237288292	0.09139999999999995	1.2401333333333335	1.0
819.390569267336	0.08939999999999995	1.2697333333333336	1.0
819.7885339254531	0.08836666666666662	1.3768000000000002	1.0
819.7885339254531	0.0945333333333333	1.3749333333333336	1.0
819.7922884203876	0.09049999999999994	1.3965333333333332	1.0
819.7883352704606	0.09413333333333329	1.3529333333333335	1.0
820.590360248211	0.08953333333333328	1.3876000000000004	1.0
820.5901043837072	0.08846666666666662	1.3313333333333337	1.0
820.5901043837072	0.08673333333333329	1.323466666666667	1.0
820.4131982731134	0.08673333333333329	1.3966666666666667	1.0
821.0856641163201	0.09029999999999996	1.4747999999999999	1.0
821.0856407871997	0.09173333333333329	1.4747999999999999	1.0
821.7905828620984	0.09423333333333328	1.4021333333333335	1.0
821.7905828620984	0.08963333333333329	1.4558666666666666	1.0
821.7905828620984	0.09049999999999996	1.48	1.0
821.7905828620984	0.08836666666666662	1.4730666666666665	1.0
821.8874944389999	0.08606666666666662	1.456133333333333	1.0
821.8942746974805	0.09063333333333327	1.4001333333333335	1.0
821.8942746974805	0.08723333333333329	1.3926666666666667	1.0
821.8942746974805	0.08539999999999996	1.3276000000000003	1.0
822.1945383284105	0.08659999999999994	1.3201333333333336	1.0
822.2943698573634	0.08659999999999994	1.3200000000000003	1.0
822.6917783656496	0.08526666666666662	1.3208000000000004	1.0
822.6917783656496	0.08759999999999996	1.3208000000000004	1.0
823.4956292800213	0.09189999999999995	1.3976	1.0
823.4961977199484	0.09159999999999996	1.48	1.0
823.4992768783396	0.08726666666666662	1.4770666666666667	1.0
823.9995450621641	0.08226666666666661	1.4341333333333333	1.0
823.9995450621641	0.08359999999999995	1.4409333333333332	1.0
824.0027456341979	0.08063333333333328	1.4052	1.0
824.3038195718634	0.08349999999999995	1.4009333333333334	1.0
824.4028510288488	0.0778333333333333	1.3568000000000002	1.0
824.7104512554332	0.08089999999999996	1.3232000000000002	1.0
824.7104512554332	0.08089999999999996	1.4642666666666666	1.0
824.7104512554332	0.08929999999999995	1.4537333333333333	1.0
825.3087038638024	0.08593333333333329	1.4537333333333333	1.0
825.3058479050479	0.08466666666666663	1.4806666666666664	1.0
825.3077128217842	0.08543333333333329	1.5596	1.0
825.3077128217842	0.08486666666666662	1.5393333333333337	1.0
825.6163443674257	0.0841333333333333	1.5046666666666666	1.0
825.6206110696418	0.08479999999999994	1.4622666666666666	1.0
825.7148583145787	0.07893333333333329	1.4032000000000002	1.0
825.715876573285	0.08179999999999996	1.3344000000000003	1.0
825.715876573285	0.07786666666666661	1.3201333333333336	1.0
826.1196176452386	0.08399999999999995	1.4805333333333335	1.0
826.1196176452386	0.07766666666666662	1.3737333333333335	1.0
826.8307225734932	0.07766666666666662	1.325066666666667	1.0
827.0319535002587	0.08459999999999997	1.325066666666667	1.0
827.0319535002587	0.07806666666666663	1.4	1.0
827.0319535002587	0.0823333333333333	1.3837333333333335	1.0
827.343776572546	0.07643333333333328	1.385066666666667	1.0
827.7489763438303	0.07889999999999994	1.3296000000000003	1.0
828.0440569325917	0.08319999999999995	1.48	1.0
828.0440569325917	0.07809999999999995	1.48	1.0
828.0440770980741	0.08286666666666662	1.5364000000000002	1.0
828.2525150274095	0.08429999999999996	1.5404	1.0
828.7583681399038	0.07863333333333328	1.4216	1.0
828.7583681399038	0.07986666666666663	1.4022666666666668	1.0
828.7583681399038	0.07986666666666663	1.4564	1.0
829.2723777577113	0.07579999999999996	1.4220000000000002	1.0
829.2736903652659	0.08166666666666662	1.4220000000000002	1.0
829.374228845761	0.08039999999999996	1.4080000000000001	1.0
829.4746039324966	0.08369999999999995	1.4813333333333332	1.0
829.4746039324966	0.0779333333333333	1.4721333333333333	1.0
829.4746039324966	0.0823333333333333	1.3398666666666668	1.0
830.2214726653038	0.07989999999999994	1.4346666666666665	1.0
830.1828275651968	0.08029999999999995	1.4578666666666664	1.0
830.1846303387129	0.08019999999999995	1.5452	1.0
830.5896096575763	0.08259999999999995	1.5102666666666669	1.0
830.5896096575763	0.08006666666666662	1.3960000000000001	1.0
830.5962651523491	0.08006666666666662	1.3470666666666669	1.0
831.214757011306	0.07943333333333329	1.48	1.0
831.3199492218614	0.08243333333333329	1.48	1.0
831.3199492218614	0.08066666666666662	1.5262666666666667	1.0
831.3199492218614	0.08166666666666662	1.544666666666667	1.0
831.726419001071	0.08023333333333328	1.5015999999999998	1.0
831.72747951656	0.08326666666666661	1.4661333333333333	1.0
834.3508262272277	0.08176666666666663	1.4017333333333333	1.0
832.5502292703611	0.08076666666666663	1.4498666666666669	1.0
832.5502292703611	0.07919999999999995	1.4529333333333334	1.0
832.5502292703611	0.08236666666666662	1.4799999999999998	1.0
832.5500578387519	0.08909999999999996	1.48	1.0
832.9629599022571	0.08909999999999996	1.478133333333333	1.0
832.9629431297913	0.08366666666666663	1.3993333333333335	1.0
832.9629431297913	0.0848333333333333	1.3993333333333335	1.0
833.0605561096239	0.08693333333333329	1.3682666666666667	1.0
833.0605561096239	0.08953333333333328	1.321866666666667	1.0
833.4768750521297	0.10049999999999995	1.4796	1.0
833.8866593751412	0.09073333333333328	1.4801333333333333	1.0
833.8866593751412	0.09736666666666662	1.2409333333333337	1.0
833.9873436382566	0.10113333333333328	1.1672	1.0
834.308626397834	0.10919999999999996	1.2560000000000002	1.0
834.3089047382846	0.10766666666666663	1.1542666666666668	1.0
834.715755560813	0.10039999999999996	0.7698666666666667	1.0
834.715755560813	0.10039999999999996	0.7698666666666667	1.0
834.8136409994892	0.10039999999999996	0.7698666666666667	1.0
835.0331251987838	0.10039999999999996	0.7698666666666667	1.0
835.0317139584996	0.06623333333333328	0.06853333333333339	1.0
835.2369985671522	0.06169999999999995	0.007866666666666673	1.0
835.2369985671522	0.05959999999999994	0.001466666666666668	1.0
835.7496366706862	0.05959999999999994	-0.02400000000000002	1.0
835.6467946431293	0.05539999999999994	-0.02400000000000002	1.0
836.3759046290767	0.05683333333333328	-0.02626666666666669	1.0
836.5835660246294	0.05429999999999995	-0.022533333333333353	1.0
836.5835660246294	0.05486666666666661	-0.02746666666666669	1.0
836.7979761835527	0.05289999999999993	-0.024400000000000022	1.0
836.5822328930338	0.05199999999999994	-0.026400000000000024	1.0
836.9979985041995	0.05589999999999994	-0.02506666666666669	1.0
836.9980654164411	0.055099999999999934	-0.027600000000000027	1.0
836.9980654164411	0.052533333333333265	-0.026933333333333358	1.0
837.2576098875633	0.05129999999999993	-0.024666666666666687	1.0
837.4144903557733	0.05499999999999994	-0.02666666666666669	1.0
837.7284644279028	0.05369999999999994	-0.02520000000000002	1.0
837.8304515666196	0.05369999999999994	-0.02546666666666669	1.0
838.1440564555256	0.05499999999999994	-0.02546666666666669	1.0
838.1440564555256	0.052966666666666606	-0.025600000000000022	1.0
838.1437913042031	0.055833333333333277	-0.027066666666666694	1.0
838.3500190991962	0.05259999999999993	-0.027200000000000023	1.0
838.5676162456842	0.05089999999999993	-0.026533333333333357	1.0
839.0827964681432	0.0508666666666666	-0.02400000000000002	1.0
839.0827964681432	0.054899999999999935	-0.02746666666666669	1.0
838.978908802039	0.053933333333333264	-0.026533333333333357	1.0
839.5077964114838	0.055933333333333266	-0.026400000000000024	1.0
839.4953593768635	0.05516666666666661	-0.02666666666666669	1.0
840.0223917218694	0.05516666666666661	-0.02426666666666669	1.0
840.0223917218694	0.051866666666666596	-0.02040000000000002	1.0
840.444546675477	0.0495666666666666	-0.02040000000000002	1.0
840.4483208298902	0.05133333333333327	-0.022266666666666688	1.0
840.8677930129918	0.0537666666666666	-0.02666666666666669	1.0
840.8680150816175	0.051133333333333274	-0.022133333333333352	1.0
840.8680150816175	0.052999999999999936	-0.024933333333333356	1.0
840.9803224585914	0.05379999999999993	-0.02586666666666669	1.0
840.9803224585914	0.053633333333333276	-0.024400000000000022	1.0
841.2886273295595	0.05069999999999994	-0.025600000000000022	1.0
841.3900015772135	0.05513333333333327	-0.028933333333333356	1.0
841.3900015772135	0.05569999999999993	-0.026000000000000023	1.0
841.5598575687475	0.05569999999999993	-0.024533333333333355	1.0
841.7075543041273	0.05299999999999993	-0.026533333333333357	1.0
842.1295182927263	0.0537666666666666	-0.026533333333333357	1.0
842.227970121642	0.0530666666666666	-0.02240000000000002	1.0
842.227970121642	0.0537666666666666	-0.024400000000000022	1.0
842.7569740439071	0.05193333333333327	-0.022133333333333352	1.0
842.7569740439071	0.058099999999999936	-0.02520000000000002	1.0
842.9737767036378	0.05476666666666661	-0.025600000000000022	1.0
843.3955051743148	0.05739999999999994	-0.026533333333333357	1.0
843.3955051743148	0.04989999999999994	-0.02160000000000002	1.0
843.9233595298638	0.0531666666666666	-0.026133333333333356	1.0
843.9233595298638	0.05356666666666661	-0.026400000000000024	1.0
844.3473005821817	0.05356666666666661	-0.02426666666666669	1.0
844.5565351473616	0.05259999999999993	-0.02426666666666669	1.0
844.5565351473616	0.049766666666666605	-0.02360000000000002	1.0
844.6689815300484	0.05469999999999994	-0.02546666666666669	1.0
844.773124598952	0.052199999999999934	-0.02520000000000002	1.0
844.7200219240563	0.05129999999999994	-0.024800000000000023	1.0
844.8751544799545	0.05069999999999994	-0.020933333333333352	1.0
844.9809951677548	0.05023333333333327	-0.02173333333333335	1.0
844.9809951677548	0.054899999999999935	-0.025733333333333355	1.0
844.8758720466052	0.054899999999999935	-0.026400000000000024	1.0
844.8708280716078	0.055366666666666606	-0.022133333333333352	1.0
844.9874213696547	0.05623333333333327	-0.020000000000000018	1.0
844.9874213696547	0.048633333333333265	-0.024400000000000022	1.0
844.3470599978039	0.05326666666666661	-0.02746666666666669	1.0
844.3486833848009	0.056699999999999945	-0.025333333333333357	1.0
844.3486833848009	0.05773333333333329	-0.025333333333333357	1.0
843.5007149874591	0.056733333333333275	-0.024400000000000022	1.0
843.4991895638555	0.05283333333333328	-0.026000000000000023	1.0
843.391939189165	0.05329999999999994	-0.02520000000000002	1.0
843.391939189165	0.055733333333333274	-0.02680000000000002	1.0
843.391939189165	0.0502666666666666	-0.02173333333333335	1.0
842.9703626296122	0.051433333333333275	-0.02360000000000002	1.0
842.8709019961389	0.05193333333333327	-0.023466666666666688	1.0
842.3405085554095	0.049966666666666604	-0.02626666666666669	1.0
842.0241103067877	0.05183333333333327	-0.023066666666666687	1.0
842.0241103067877	0.05183333333333327	-0.026000000000000023	1.0
841.7083954187697	0.05483333333333327	-0.02626666666666669	1.0
841.5059386144112	0.055333333333333276	-0.02626666666666669	1.0
841.3998419140405	0.0515666666666666	-0.025733333333333355	1.0
841.2881093751969	0.0536666666666666	-0.02200000000000002	1.0
841.2881093751969	0.0537666666666666	-0.023466666666666688	1.0
840.9765775098914	0.0568666666666666	-0.027200000000000023	1.0
840.8682488304725	0.05256666666666661	-0.024666666666666687	1.0
839.9575439407419	0.0545666666666666	-0.024666666666666687	1.0
840.867528849135	0.05299999999999994	-0.023066666666666687	1.0
840.867528849135	0.04829999999999993	-0.020266666666666686	1.0
840.867528849135	0.05159999999999994	-0.02320000000000002	1.0
840.3422887506082	0.05159999999999994	-0.02173333333333335	1.0
840.1456707079565	0.05053333333333327	-0.026133333333333356	1.0
839.9245743672091	0.055566666666666605	-0.026133333333333356	1.0
839.9245743672091	0.05219999999999993	-0.022666666666666686	1.0
839.503131068567	0.052166666666666604	-0.023066666666666687	1.0
839.3010386629561	0.054366666666666605	-0.02360000000000002	1.0
839.0866152344478	0.05203333333333327	-0.024666666666666687	1.0
838.9829774724221	0.055066666666666604	-0.02520000000000002	1.0
838.9829774724221	0.05323333333333327	-0.02400000000000002	1.0
838.9821093232609	0.0515666666666666	-0.023733333333333353	1.0
838.5657668896882	0.05163333333333327	-0.021866666666666687	1.0
838.5657668896882	0.055966666666666616	-0.024533333333333355	1.0
838.1478799133547	0.055966666666666616	-0.02506666666666669	1.0
838.1478799133547	0.05533333333333327	-0.027066666666666694	1.0
837.73140656143	0.0545666666666666	-0.027066666666666694	1.0
837.5176412051799	0.051966666666666606	-0.02320000000000002	1.0
837.4143676110012	0.0522666666666666	-0.02200000000000002	1.0
837.0971329606174	0.050799999999999935	-0.02426666666666669	1.0
837.0971329606174	0.05353333333333327	-0.02626666666666669	1.0
837.0967454811675	0.057899999999999945	-0.026533333333333357	1.0
836.7983374650515	0.052366666666666596	-0.02173333333333335	1.0
836.5822472025145	0.054733333333333266	-0.024800000000000023	1.0
836.5828479661448	0.057099999999999936	-0.02680000000000002	1.0
836.5828479661448	0.05339999999999994	-0.02280000000000002	1.0
836.2709759426874	0.05339999999999994	-0.024133333333333354	1.0
835.7511806796502	0.05393333333333327	-0.022266666666666688	1.0
835.8603691456717	0.052166666666666604	-0.022266666666666688	1.0
835.7457276293147	0.05253333333333327	-0.02546666666666669	1.0
835.7457276293147	0.05173333333333327	-0.02240000000000002	1.0
835.4380220823529	0.0515666666666666	-0.021466666666666686	1.0
835.233611394937	0.0579666666666666	-0.012933333333333345	1.0
835.2371827804342	0.0604666666666666	0.012800000000000011	1.0
835.0241352389154	0.06849999999999995	0.04613333333333337	1.0
835.0241352389154	0.0777333333333333	0.1957333333333335	1.0
834.7170427791452	0.08229999999999994	0.33173333333333355	1.0
834.3035055913832	0.09686666666666663	0.5796000000000002	1.0
833.9917691453488	0.09686666666666663	0.5796000000000002	1.0
833.9894993647658	0.09686666666666663	0.5796000000000002	1.0
833.9894993647658	0.09686666666666663	0.5796000000000002	1.0
833.8914608704523	0.09749999999999995	1.3633333333333333	1.0
833.8914608704523	0.09876666666666663	1.5250666666666666	1.0
833.3769239771256	0.09876666666666663	1.5597333333333336	1.0
833.3760634773819	0.09449999999999996	1.5593333333333335	1.0
832.9642735980661	0.09569999999999995	1.5593333333333335	1.0
832.9642735980661	0.08693333333333329	1.4504	1.0
832.9677642141937	0.07916666666666662	1.3990666666666667	1.0
832.9677642141937	0.08723333333333329	1.3977333333333335	1.0
832.5497840718245	0.08496666666666662	1.48	1.0
832.1369051469464	0.08273333333333328	1.4952000000000003	1.0
832.1369051469464	0.07943333333333329	1.4858666666666667	1.0
831.727368105124	0.07819999999999995	1.4258666666666666	1.0
831.7264361028476	0.08046666666666662	1.4020000000000001	1.0
831.7705255894354	0.0769333333333333	1.4556	1.0
831.5329238390981	0.0769333333333333	1.5492000000000001	1.0
831.5329238390981	0.08269999999999995	1.5501333333333336	1.0
830.9043218279267	0.08376666666666661	1.5501333333333336	1.0
831.1175533821901	0.07923333333333328	1.5979999999999999	1.0
830.598694725249	0.08043333333333329	1.4422666666666666	1.0
830.4000035666211	0.07846666666666662	1.4234666666666667	1.0
830.4000035666211	0.08393333333333329	1.6002666666666665	1.0
829.9845097046253	0.08329999999999996	1.6156	1.0
829.9845097046253	0.08443333333333328	1.4124	1.0
829.4812849031649	0.0788333333333333	1.4747999999999999	1.0
829.4757627287552	0.08049999999999995	1.3938666666666668	1.0
829.4757627287552	0.07989999999999996	1.4109333333333332	1.0
829.3798915505391	0.07989999999999996	1.4902666666666666	1.0
829.381030166624	0.08143333333333329	1.5573333333333335	1.0
829.378501468286	0.08539999999999996	1.5573333333333335	1.0
828.6632656677114	0.08389999999999996	1.4833333333333334	1.0
828.6632656677114	0.08069999999999995	1.48	1.0
828.6628617273359	0.07893333333333329	1.4088	1.0
828.5654930064071	0.07749999999999996	1.3972	1.0
828.250303747403	0.08306666666666662	1.4294666666666664	1.0
827.742281523569	0.0822333333333333	1.5109333333333332	1.0
827.742281523569	0.08129999999999996	1.5152	1.0
827.742281523569	0.08339999999999996	1.4813333333333332	1.0
827.3361497971154	0.08216666666666661	1.4378666666666666	1.0
827.2383680779886	0.08216666666666661	1.3908	1.0
827.0317795098807	0.07846666666666662	1.3798666666666668	1.0
827.0317795098807	0.08289999999999996	1.3798666666666668	1.0
826.8341029924381	0.08263333333333328	1.349866666666667	1.0
826.8331013307778	0.07923333333333328	1.319466666666667	1.0
826.1138533134656	0.08109999999999996	1.41	1.0
826.0775862277887	0.08649999999999995	1.5181333333333331	1.0
826.0775862277887	0.07939999999999996	1.4033333333333333	1.0
825.6173385332434	0.08306666666666662	1.3836000000000002	1.0
825.6220990574105	0.0841333333333333	1.4710666666666665	1.0
825.3082853671982	0.08586666666666662	1.4802666666666666	1.0
825.3100432435212	0.08406666666666661	1.5150666666666666	1.0
825.3100432435212	0.08406666666666661	1.5601333333333336	1.0
825.312474941547	0.08796666666666662	1.5033333333333334	1.0
825.3078126043954	0.08523333333333329	1.5033333333333334	1.0
824.7120545672127	0.08443333333333329	1.4728	1.0
824.4020521233554	0.08516666666666663	1.4786666666666668	1.0
824.4020521233554	0.08113333333333328	1.3278666666666672	1.0
824.400051864047	0.08916666666666662	1.2696000000000003	1.0
824.3108224205096	0.0861333333333333	1.336266666666667	1.0
823.9046936156502	0.08689999999999996	1.3893333333333335	1.0
823.9972805019065	0.08676666666666662	1.4220000000000002	1.0
823.9972805019065	0.08683333333333329	1.436	1.0
823.5002454506913	0.08536666666666662	1.4790666666666665	1.0
823.4955161115422	0.08536666666666662	1.48	1.0
823.4939739332985	0.09146666666666663	1.48	1.0
822.4857446069992	0.08373333333333328	1.48	1.0
822.289214868566	0.08896666666666661	1.3945333333333334	1.0
822.289214868566	0.08533333333333329	1.319066666666667	1.0
822.1960025361905	0.08523333333333329	1.3205333333333336	1.0
821.890125685726	0.08526666666666664	1.3456000000000001	1.0
821.8910032220447	0.08989999999999995	1.4050666666666667	1.0
821.890932762728	0.08933333333333329	1.4670666666666667	1.0
821.890932762728	0.09146666666666664	1.4765333333333333	1.0
821.7906140580767	0.09173333333333328	1.4243999999999999	1.0
821.4893129536325	0.0918333333333333	1.4422666666666666	1.0
821.298556720064	0.0885333333333333	1.4341333333333333	1.0
821.0875812357073	0.0885333333333333	1.4797333333333331	1.0
821.0875812357073	0.08999999999999996	1.4551999999999998	1.0
820.5905259602467	0.09006666666666661	1.4551999999999998	1.0
820.5886769384756	0.09056666666666663	1.3844	1.0
820.4888267185336	0.08996666666666663	1.3861333333333337	1.0
819.7918069489308	0.0874333333333333	1.4	1.0
819.7918069489308	0.0904333333333333	1.3965333333333334	1.0
819.7885953925697	0.08893333333333328	1.3964	1.0
819.3873743482933	0.0895333333333333	1.3997333333333335	1.0
818.6864878043123	0.09166666666666663	1.320266666666667	1.0
818.5941348139628	0.08949999999999995	1.3793333333333335	1.0
818.5941348139628	0.09313333333333329	1.299466666666667	1.0
818.5895381742318	0.09313333333333329	1.3037333333333336	1.0
818.5966109439838	0.08893333333333328	1.3037333333333336	1.0
818.5966109439838	0.0913333333333333	1.3196000000000003	1.0
818.3278981468137	0.08946666666666662	1.2961333333333336	1.0
818.3278981468137	0.09063333333333329	1.3172000000000004	1.0
818.1940295539532	0.09069999999999996	1.3724000000000003	1.0
817.500812874955	0.09503333333333329	1.3318666666666668	1.0
817.3990793765151	0.09513333333333329	1.3162666666666671	1.0
817.3090537299207	0.09263333333333329	1.319866666666667	1.0
817.3090537299207	0.09223333333333329	1.3236000000000003	1.0
816.9055373513135	0.09409999999999995	1.3200000000000003	1.0
816.8100482783639	0.09799999999999996	1.3204000000000002	1.0
816.208958130627	0.09799999999999996	1.3056000000000003	1.0
816.208958130627	0.09496666666666663	1.3056000000000003	1.0
816.208958130627	0.08629999999999996	1.1720000000000004	1.0
815.3211572795338	0.09143333333333328	1.3752000000000002	1.0
815.1310525846807	0.09519999999999997	1.3946666666666665	1.0
815.1315780975765	0.09996666666666662	1.3624000000000003	1.0
814.7384048090976	0.09339999999999997	1.2413333333333334	1.0
814.7384048090976	0.09883333333333329	1.4174666666666667	1.0
814.7384195230443	0.10673333333333329	1.4721333333333333	1.0
814.7394368709855	0.10259999999999996	1.4742666666666666	1.0
814.5353806045972	0.10179999999999995	1.4446666666666665	1.0
814.5336719833747	0.10179999999999995	1.4057333333333335	1.0
814.5336719833747	0.09616666666666662	1.3886666666666667	1.0
814.5336719833747	0.09973333333333328	1.3886666666666667	1.0
814.5336719833747	0.09379999999999995	1.2960000000000003	1.0
813.8582958072548	0.09696666666666663	1.2470666666666668	1.0
813.1168802335113	0.09243333333333328	1.2637333333333336	1.0
813.1168802335113	0.09803333333333329	1.4005333333333334	1.0
813.1624712800782	0.09876666666666661	1.4066666666666667	1.0
813.0713965232865	0.09649999999999996	1.3653333333333335	1.0
812.8609688816784	0.09739999999999996	1.3809333333333336	1.0
812.6724547532258	0.09663333333333328	1.3989333333333336	1.0
812.6724547532258	0.10233333333333329	1.385066666666667	1.0
811.7989362800458	0.10233333333333329	1.3608000000000002	1.0
811.5000640125872	0.10179999999999995	1.1634666666666666	1.0
811.4970809210472	0.09366666666666662	1.1634666666666666	1.0
811.4105857275117	0.09536666666666663	1.1633333333333336	1.0
811.4105857275117	0.09459999999999996	1.1766666666666667	1.0
811.4104406795221	0.09516666666666662	1.3380000000000003	1.0
811.4104406795221	0.10169999999999996	1.3802666666666668	1.0
811.3098759719957	0.10469999999999996	1.3958666666666666	1.0
811.1123164583105	0.10079999999999996	1.4277333333333335	1.0
811.1123164583105	0.09929999999999996	1.4784	1.0
811.1087883816763	0.10206666666666663	1.4642666666666666	1.0
810.8107900494782	0.10313333333333329	1.3208000000000002	1.0
810.6235479452872	0.09929999999999996	1.3216000000000003	1.0
810.4231775042241	0.09929999999999996	1.3457333333333337	1.0
810.4231775042241	0.0982333333333333	1.2768000000000002	1.0
809.939500463191	0.09706666666666662	1.2768000000000002	1.0
809.5480511281411	0.09729999999999996	1.3030666666666668	1.0
809.5480511281411	0.09786666666666662	1.288266666666667	1.0
809.452507145546	0.10216666666666664	1.2332	1.0
809.452507145546	0.09883333333333329	1.2424000000000002	1.0
809.3633084618483	0.09316666666666662	1.257866666666667	1.0
808.2907298290108	0.09499999999999996	1.2845333333333333	1.0
808.2907298290108	0.09486666666666663	1.3152000000000001	1.0
808.0069162614633	0.0918333333333333	1.2393333333333336	1.0
808.0069162614633	0.09726666666666661	1.3101333333333336	1.0
808.0104908499745	0.09726666666666661	1.3313333333333337	1.0
807.8992430358143	0.10243333333333329	1.2752000000000001	1.0
807.9007271024258	0.0918333333333333	1.2752000000000001	1.0
807.8097561153703	0.09733333333333329	1.3149333333333335	1.0
807.8097561153703	0.10246666666666662	1.3204000000000002	1.0
807.7155843494347	0.09966666666666663	1.3265333333333336	1.0
807.6213181534647	0.09989999999999995	1.3196000000000003	1.0
807.5119187742268	0.09326666666666664	1.2717333333333336	1.0
806.9883078124387	0.09546666666666662	1.1822666666666668	1.0
806.9883078124387	0.09943333333333328	1.3064000000000002	1.0
806.8471654968151	0.09846666666666663	1.2222666666666668	1.0
806.2929884632936	0.09409999999999995	1.1637333333333333	1.0
806.2929884632936	0.09879999999999996	1.2376000000000003	1.0
806.0755937887756	0.09879999999999996	1.2372000000000003	1.0
806.0755937887756	0.09916666666666663	1.2294666666666667	1.0
806.0746949872301	0.1000333333333333	1.2294666666666667	1.0
804.7323391196129	0.0900666666666666	1.2208000000000003	1.0
804.8271491598439	0.09499999999999996	1.2412000000000003	1.0
804.6265608744728	0.09399999999999996	1.2252000000000003	1.0
804.6265608744728	0.09603333333333329	1.2441333333333333	1.0
804.4390368589058	0.09589999999999996	1.163066666666667	1.0
804.4407852389529	0.09279999999999997	1.1589333333333336	1.0
804.4407852389529	0.09299999999999996	1.164666666666667	1.0
804.4785597114991	0.09459999999999996	1.1660000000000001	1.0
804.4785597114991	0.09223333333333329	1.1581333333333335	1.0
804.3451586462678	0.09223333333333329	1.1608	1.0
804.2420252613894	0.09546666666666662	1.1608	1.0
804.2420252613894	0.09063333333333327	1.1889333333333336	1.0
803.3849471921851	0.09533333333333328	1.2346666666666668	1.0
803.3849471921851	0.10123333333333329	1.2426666666666668	1.0
802.8135270619887	0.09776666666666664	1.283866666666667	1.0
802.7211939645317	0.09379999999999995	1.187466666666667	1.0
802.7211684914338	0.10086666666666662	1.3106666666666669	1.0
802.3356994585855	0.09449999999999996	1.315066666666667	1.0
802.3356994585855	0.09329999999999995	1.2349333333333337	1.0
801.3897074739496	0.09926666666666663	1.1828	1.0
801.3897074739496	0.09279999999999997	1.2336	1.0
801.1948358796845	0.09279999999999997	1.2333333333333336	1.0
801.2843362604191	0.0903333333333333	1.2333333333333336	1.0
801.2843362604191	0.09789999999999997	1.2413333333333336	1.0
801.1903813859815	0.09849999999999995	1.3525333333333336	1.0
801.0978647427195	0.09999999999999995	1.377466666666667	1.0
801.0982612109569	0.09769999999999995	1.2941333333333336	1.0
801.096955237067	0.0929333333333333	1.1573333333333335	1.0
801.096955237067	0.08716666666666661	1.0800000000000003	1.0
800.9027988422922	0.09193333333333328	1.1090666666666669	1.0
800.9047975493602	0.08569999999999996	1.1434666666666669	1.0
800.3362866802705	0.08896666666666662	1.1589333333333336	1.0
800.3359134518885	0.09503333333333329	1.1508	1.0
800.3359134518885	0.09503333333333329	1.1328	1.0
