wavelength(nm)	flourescence PMT(V)	ti_saph Power (V)	Gain (V)
800.6294203305455	0.09316666666666663	1.2373333333333336	1.0
800.6259137059095	0.09279999999999997	1.2173333333333334	1.0
800.8146877478475	0.09366666666666662	1.1840000000000002	1.0
800.8146877478475	0.09306666666666663	1.16	1.0
801.0908331573156	0.09476666666666662	1.1582666666666668	1.0
801.0984067248631	0.09486666666666663	1.0801333333333336	1.0
801.1918544327312	0.09169999999999996	1.0873333333333333	1.0
801.1897520376161	0.09606666666666662	1.1034666666666668	1.0
801.1897520376161	0.09843333333333329	1.2372000000000003	1.0
801.2800709126127	0.0972333333333333	1.2468000000000004	1.0
801.2391498689669	0.0972333333333333	1.1777333333333335	1.0
801.387519185548	0.09386666666666663	1.1445333333333334	1.0
801.3759410278149	0.09193333333333328	1.1445333333333334	1.0
801.3759410278149	0.09549999999999996	1.1441333333333334	1.0
802.3378324258066	0.0950333333333333	1.1518666666666668	1.0
802.6235941130544	0.09666666666666662	1.1529333333333336	1.0
802.7219569467728	0.0973333333333333	1.2140000000000002	1.0
802.8118278236936	0.09649999999999996	1.3013333333333337	1.0
802.8118278236936	0.09169999999999996	1.1770666666666671	1.0
803.4843075580939	0.09759999999999995	1.1912000000000003	1.0
803.6729387115051	0.09466666666666662	1.2360000000000002	1.0
804.206672509648	0.09613333333333328	1.2813333333333337	1.0
804.2496310788142	0.09613333333333328	1.1886666666666668	1.0
804.2496310788142	0.09649999999999996	1.1620000000000001	1.0
804.3468644497405	0.09436666666666663	1.1620000000000001	1.0
804.3473148252957	0.09539999999999996	1.1597333333333335	1.0
804.4357260171192	0.09389999999999996	1.1588	1.0
804.4357260171192	0.09576666666666662	1.145066666666667	1.0
804.4357260171192	0.09116666666666662	1.1002666666666667	1.0
804.7103072110607	0.09429999999999995	1.1585333333333336	1.0
804.7225484639451	0.09516666666666664	1.1588	1.0
804.7335794461608	0.09973333333333328	1.1638666666666668	1.0
804.8242201584728	0.09916666666666663	1.2190666666666667	1.0
804.8242201584728	0.09416666666666662	1.2153333333333334	1.0
805.7758216303364	0.09703333333333329	1.227466666666667	1.0
805.7758216303364	0.09703333333333329	1.3078666666666672	1.0
806.0708849627015	0.10033333333333329	1.3078666666666672	1.0
806.07419058068	0.10156666666666662	1.3136	1.0
806.07419058068	0.09949999999999996	1.3176000000000003	1.0
806.803358884465	0.09499999999999996	1.2801333333333336	1.0
807.0331901498135	0.09626666666666663	1.2269333333333334	1.0
807.0298851901579	0.0972333333333333	1.3192000000000004	1.0
807.5133879835694	0.0966333333333333	1.2456000000000003	1.0
807.5133879835694	0.09616666666666662	1.1608	1.0
807.5133879835694	0.09459999999999995	1.1721333333333337	1.0
807.8504582334197	0.09736666666666662	1.2237333333333336	1.0
807.8986704276261	0.10126666666666663	1.3136000000000003	1.0
807.9053799469732	0.10126666666666663	1.3193333333333335	1.0
807.8085962385461	0.09969999999999997	1.2732	1.0
807.8085962385461	0.09956666666666662	1.2732	1.0
807.8986849376183	0.09526666666666662	1.2560000000000002	1.0
808.0091155860972	0.09869999999999995	1.3193333333333335	1.0
808.3368185755021	0.10383333333333328	1.3512000000000004	1.0
808.1979404952738	0.09946666666666663	1.2644000000000002	1.0
808.1979404952738	0.09719999999999997	1.2205333333333337	1.0
808.2868796711368	0.0986333333333333	1.1814666666666669	1.0
808.2868796711368	0.09773333333333328	1.317066666666667	1.0
809.3631862386495	0.09636666666666663	1.3121333333333336	1.0
809.4534702376686	0.10149999999999997	1.2364000000000002	1.0
809.4534702376686	0.10149999999999997	1.2337333333333338	1.0
809.4534702376686	0.09836666666666663	1.229066666666667	1.0
809.9391165706342	0.09749999999999995	1.229066666666667	1.0
810.2288737400826	0.09269999999999996	1.243066666666667	1.0
810.6225502496275	0.09676666666666663	1.1978666666666666	1.0
810.6225502496275	0.10249999999999995	1.3896000000000002	1.0
810.626642708436	0.09859999999999997	1.4395999999999998	1.0
811.1086267799351	0.10216666666666663	1.4208	1.0
811.1076903695003	0.10439999999999995	1.48	1.0
811.1074578664571	0.10389999999999996	1.48	1.0
811.1074578664571	0.10623333333333329	1.4801333333333333	1.0
811.2981519409344	0.10313333333333329	1.4768	1.0
811.4080748358771	0.10313333333333329	1.3954666666666669	1.0
811.3098100252598	0.10359999999999996	1.3818666666666668	1.0
811.3098100252598	0.10423333333333329	1.3818666666666668	1.0
811.3098100252598	0.09653333333333329	1.319066666666667	1.0
811.4988867857726	0.09399999999999996	1.2070666666666667	1.0
811.4988059941624	0.09226666666666664	1.1625333333333332	1.0
811.7998090773988	0.09223333333333329	1.1601333333333335	1.0
811.7998276355294	0.09203333333333329	1.1602666666666668	1.0
811.7998276355294	0.0957333333333333	1.1622666666666668	1.0
812.6349415210724	0.10266666666666663	1.3537333333333337	1.0
812.6349415210724	0.09429999999999995	1.3668000000000002	1.0
813.16241685319	0.1010333333333333	1.3206666666666669	1.0
813.1654611313094	0.09916666666666663	1.3964	1.0
813.1654611313094	0.09916666666666663	1.4742666666666664	1.0
813.1654611313094	0.10149999999999997	1.4467999999999999	1.0
813.1654611313094	0.10049999999999996	1.4467999999999999	1.0
814.0434260153407	0.09599999999999995	1.2534666666666667	1.0
814.0897371771971	0.0924333333333333	1.2421333333333335	1.0
814.0897371771971	0.0943333333333333	1.3645333333333338	1.0
814.7369203447756	0.10236666666666662	1.3945333333333334	1.0
814.7392128985659	0.10159999999999995	1.4121333333333335	1.0
814.736019608507	0.1001333333333333	1.446533333333333	1.0
814.7402014667759	0.10066666666666663	1.4251999999999998	1.0
814.7402014667759	0.1005333333333333	1.432	1.0
814.7370242696326	0.09626666666666663	1.3893333333333335	1.0
815.361425028414	0.09626666666666663	1.2608	1.0
815.3223608798917	0.0968333333333333	1.2608	1.0
815.3232338826244	0.09353333333333329	1.305866666666667	1.0
815.3232338826244	0.09593333333333329	1.317866666666667	1.0
816.2116355948051	0.09659999999999995	1.3228000000000002	1.0
816.2107279755771	0.0865333333333333	1.1609333333333334	1.0
816.2107279755771	0.0904333333333333	1.16	1.0
816.9079934578612	0.09506666666666663	1.3650666666666669	1.0
816.9079934578612	0.09256666666666663	1.3204000000000002	1.0
817.4986895488738	0.09153333333333329	1.315066666666667	1.0
817.4986784360952	0.09089999999999995	1.2384000000000004	1.0
817.4995172247869	0.08699999999999995	1.1828000000000003	1.0
817.7962619581631	0.08699999999999995	1.1816	1.0
817.7962619581631	0.08599999999999995	1.2036000000000002	1.0
817.7962619581631	0.08926666666666662	1.2036000000000002	1.0
818.1950325266437	0.09313333333333329	1.3201333333333336	1.0
818.1950325266437	0.09056666666666663	1.293866666666667	1.0
818.3339611356665	0.09086666666666662	1.2340000000000002	1.0
818.4986689755959	0.08773333333333329	1.2326666666666668	1.0
818.4986689755959	0.09046666666666663	1.274666666666667	1.0
818.4986689755959	0.09269999999999996	1.2424000000000002	1.0
818.5914558622374	0.08389999999999996	1.2369333333333337	1.0
818.6859871742174	0.08199999999999996	1.2410666666666668	1.0
819.7916908938117	0.09329999999999995	1.3752000000000002	1.0
819.7916908938117	0.09329999999999995	1.3432000000000002	1.0
819.7872811061985	0.09256666666666663	1.379466666666667	1.0
819.7916899982786	0.08963333333333329	1.379466666666667	1.0
820.495689859518	0.09343333333333328	1.3773333333333335	1.0
820.5903996109625	0.08523333333333329	1.3628	1.0
820.5903996109625	0.09026666666666662	1.3981333333333335	1.0
820.5917747265582	0.09303333333333329	1.340666666666667	1.0
820.9909226912957	0.09096666666666663	1.3201333333333336	1.0
821.0900882435662	0.08759999999999996	1.4365333333333332	1.0
821.0900882435662	0.08949999999999995	1.4353333333333331	1.0
821.0900882435662	0.09416666666666662	1.4435999999999998	1.0
821.5845593826779	0.09516666666666664	1.48	1.0
821.890217976628	0.09196666666666661	1.4794666666666665	1.0
821.889107173083	0.09196666666666661	1.449733333333333	1.0
821.7932597585161	0.08989999999999995	1.401066666666667	1.0
821.7932597585161	0.08473333333333329	1.401066666666667	1.0
821.8903160998586	0.09209999999999996	1.3997333333333335	1.0
822.1922762897351	0.09009999999999996	1.387066666666667	1.0
822.1922655265577	0.08519999999999996	1.320266666666667	1.0
822.484494723779	0.08586666666666662	1.3188000000000004	1.0
822.484494723779	0.08883333333333329	1.3204000000000005	1.0
822.484494723779	0.08879999999999995	1.3949333333333334	1.0
823.4979797785741	0.08869999999999995	1.4714666666666665	1.0
823.9035678410714	0.08486666666666662	1.4248	1.0
823.8986785790185	0.08549999999999995	1.4029333333333334	1.0
823.8986785790185	0.08549999999999995	1.4382666666666668	1.0
824.098513867003	0.08683333333333328	1.3874666666666668	1.0
824.0984466277441	0.0826333333333333	1.3874666666666668	1.0
824.3970593518875	0.08166666666666662	1.3669333333333336	1.0
824.3053963392914	0.08599999999999997	1.3413333333333337	1.0
824.3053963392914	0.08499999999999995	1.3168000000000002	1.0
824.3053963392914	0.08959999999999996	1.4802666666666666	1.0
825.3074630063477	0.08379999999999996	1.4687999999999999	1.0
825.307642424657	0.08179999999999996	1.3972000000000002	1.0
825.3088643914019	0.08569999999999996	1.4798666666666667	1.0
825.9434394734874	0.08066666666666662	1.4802666666666666	1.0
825.9434394734874	0.08169999999999995	1.4708	1.0
825.7164561571751	0.08169999999999995	1.375466666666667	1.0
825.7135779133627	0.07886666666666661	1.3236	1.0
825.7173527739195	0.08286666666666662	1.3236	1.0
825.7173527739195	0.08629999999999996	1.3200000000000003	1.0
825.7173527739195	0.08029999999999994	1.314	1.0
826.427401679305	0.08139999999999994	1.4730666666666665	1.0
826.4285384797483	0.08409999999999995	1.4804	1.0
826.4285384797483	0.08079999999999996	1.3698666666666668	1.0
827.0314427267293	0.07969999999999995	1.323866666666667	1.0
827.0314427267293	0.08049999999999995	1.3906666666666667	1.0
827.0314427267293	0.08089999999999996	1.393066666666667	1.0
827.3403096323498	0.0798333333333333	1.3721333333333336	1.0
827.7421091866871	0.07883333333333328	1.4001333333333332	1.0
827.9400602729321	0.07883333333333328	1.4078666666666668	1.0
827.9400602729321	0.07876666666666662	1.4816	1.0
827.9439476709671	0.08069999999999995	1.4816	1.0
828.2388617624083	0.08309999999999995	1.4813333333333332	1.0
828.7571507113449	0.07816666666666662	1.3877333333333335	1.0
828.6626155119546	0.08103333333333328	1.351866666666667	1.0
828.6626155119546	0.07596666666666661	1.3785333333333336	1.0
828.861111586555	0.07946666666666662	1.3944	1.0
829.2745909041994	0.08099999999999996	1.4150666666666667	1.0
829.2701075157269	0.07669999999999995	1.3818666666666668	1.0
829.3759737184872	0.08089999999999996	1.4316	1.0
829.3759737184872	0.08719999999999996	1.5030666666666668	1.0
829.3759737184872	0.08719999999999996	1.4485333333333335	1.0
829.8879062344306	0.08133333333333329	1.4562666666666666	1.0
829.8878623182046	0.07633333333333328	1.4562666666666666	1.0
829.9869922166337	0.07806666666666663	1.48	1.0
829.9869922166337	0.07923333333333327	1.48	1.0
830.3967936872114	0.08056666666666662	1.5189333333333332	1.0
830.3951020246922	0.08019999999999997	1.5526666666666669	1.0
831.2138684265831	0.07946666666666662	1.4587999999999999	1.0
831.1122103221043	0.07659999999999995	1.3929333333333336	1.0
831.2139556375151	0.07659999999999996	1.4768	1.0
831.2139556375151	0.08506666666666662	1.5625333333333336	1.0
831.5296517686561	0.08293333333333329	1.5016	1.0
831.727297793976	0.08293333333333329	1.48	1.0
831.7271755832091	0.08189999999999996	1.48	1.0
832.5520066569778	0.07913333333333329	1.48	1.0
832.5520066569778	0.0831333333333333	1.4181333333333332	1.0
832.5520066569778	0.08396666666666662	1.4025333333333334	1.0
832.6480904808134	0.08796666666666662	1.48	1.0
832.9652493544091	0.08906666666666661	1.48	1.0
832.9677168957588	0.08316666666666662	1.3997333333333335	1.0
832.9677168957588	0.08616666666666663	1.3998666666666668	1.0
832.9642160364681	0.08513333333333328	1.3960000000000001	1.0
833.375935979043	0.09299999999999996	1.4277333333333333	1.0
833.3817199668232	0.09216666666666663	1.48	1.0
833.5221471179659	0.09216666666666663	1.5129333333333332	1.0
833.5221471179659	0.09289999999999995	1.4589333333333334	1.0
833.8912210050886	0.10026666666666664	1.4589333333333334	1.0
833.9869738524545	0.10329999999999996	1.2896	1.0
834.1992483989892	0.10206666666666663	1.2512000000000003	1.0
834.4009687117929	0.11659999999999997	1.1657333333333335	1.0
834.4009687117929	0.11153333333333329	1.1490666666666667	1.0
834.6114611529057	0.09216666666666662	0.6821333333333333	1.0
835.032945354584	0.08029999999999997	0.3477333333333335	1.0
835.2332340823631	0.06233333333333327	0.06173333333333339	1.0
835.4334685163618	0.06283333333333328	0.02320000000000002	1.0
835.4334685163618	0.059933333333333276	0.009333333333333341	1.0
835.2332049559818	0.059933333333333276	0.001200000000000001	1.0
835.6477174077776	0.056533333333333276	-0.02080000000000002	1.0
835.7498675322554	0.05073333333333327	-0.02080000000000002	1.0
836.060466084538	0.056333333333333284	-0.02746666666666669	1.0
836.060466084538	0.05256666666666661	-0.02813333333333336	1.0
836.4160435322781	0.0542666666666666	-0.027333333333333355	1.0
836.5802408314324	0.05539999999999994	-0.02626666666666669	1.0
836.7944807524718	0.053333333333333274	-0.02426666666666669	1.0
836.9008248366371	0.04873333333333327	-0.023333333333333355	1.0
836.9008248366371	0.05559999999999994	-0.027733333333333356	1.0
837.1020907398034	0.05346666666666661	-0.026533333333333357	1.0
837.1165104680462	0.04953333333333327	-0.02506666666666669	1.0
837.310504768061	0.04953333333333327	-0.02680000000000002	1.0
837.4158166304935	0.05013333333333327	-0.025733333333333355	1.0
837.4158166304935	0.05189999999999994	-0.025733333333333355	1.0
837.7278330306731	0.05306666666666661	-0.02786666666666669	1.0
837.8273805371298	0.052833333333333274	-0.025733333333333355	1.0
838.2463988316982	0.05213333333333327	-0.02506666666666669	1.0
838.5703517240454	0.0549666666666666	-0.027733333333333356	1.0
838.8712473075254	0.05529999999999994	-0.027333333333333355	1.0
838.8712473075254	0.05189999999999994	-0.025333333333333357	1.0
838.9785741203611	0.054766666666666616	-0.02626666666666669	1.0
839.2875224476887	0.057866666666666594	-0.02626666666666669	1.0
839.4007711433849	0.056166666666666615	-0.027066666666666694	1.0
839.5051171229211	0.056166666666666615	-0.02813333333333336	1.0
839.5051171229211	0.052699999999999934	-0.028266666666666693	1.0
840.0222531163143	0.0527666666666666	-0.028266666666666693	1.0
840.4403892536935	0.050999999999999934	-0.024800000000000023	1.0
840.5437627221353	0.05039999999999994	-0.02400000000000002	1.0
840.5502402128614	0.05209999999999993	-0.024400000000000022	1.0
840.5502402128614	0.0531666666666666	-0.02520000000000002	1.0
840.8648838224588	0.052699999999999934	-0.02546666666666669	1.0
841.2835414895958	0.054366666666666605	-0.025333333333333357	1.0
841.2356693103266	0.055833333333333277	-0.028666666666666694	1.0
841.2356693103266	0.05383333333333327	-0.024800000000000023	1.0
841.2356693103266	0.05119999999999994	-0.02426666666666669	1.0
841.4970204628919	0.05123333333333327	-0.02320000000000002	1.0
841.6000686986408	0.05123333333333327	-0.02320000000000002	1.0
841.7087179865107	0.0520666666666666	-0.026533333333333357	1.0
841.9119601810052	0.052666666666666605	-0.026533333333333357	1.0
841.9119601810052	0.05149999999999994	-0.02506666666666669	1.0
842.3332216466712	0.05293333333333328	-0.02680000000000002	1.0
842.5499132265621	0.0536666666666666	-0.02786666666666669	1.0
842.8670392313359	0.05343333333333326	-0.02680000000000002	1.0
842.862773988719	0.050333333333333265	-0.026533333333333357	1.0
842.862773988719	0.05356666666666661	-0.02746666666666669	1.0
843.0859593307464	0.05229999999999993	-0.02813333333333336	1.0
843.2886267641109	0.05309999999999994	-0.02586666666666669	1.0
843.4970538026816	0.052499999999999936	-0.027066666666666694	1.0
844.1278318634846	0.052499999999999936	-0.02400000000000002	1.0
844.3518734009161	0.04803333333333326	-0.027066666666666694	1.0
844.3518734009161	0.052433333333333276	-0.027066666666666694	1.0
844.6641951685548	0.057433333333333274	-0.02946666666666669	1.0
844.6641951685548	0.0522666666666666	-0.026933333333333358	1.0
844.7723191345169	0.05123333333333326	-0.024400000000000022	1.0
844.7722855014177	0.0520666666666666	-0.024800000000000023	1.0
844.7722855014177	0.05409999999999993	-0.02746666666666669	1.0
844.9874922580392	0.05573333333333328	-0.02746666666666669	1.0
842.9720933152227	0.05413333333333327	-0.02973333333333336	1.0
842.8662411351962	0.05456666666666661	-0.02680000000000002	1.0
842.9722461139801	0.05329999999999994	-0.02626666666666669	1.0
842.5544092239136	0.05226666666666661	-0.028000000000000025	1.0
842.0860377247393	0.050999999999999934	-0.02626666666666669	1.0
842.0860377247393	0.05333333333333327	-0.025733333333333355	1.0
841.7043630247665	0.051999999999999935	-0.029200000000000028	1.0
841.6001865916036	0.05423333333333327	-0.028000000000000025	1.0
841.5024953725823	0.05423333333333327	-0.02546666666666669	1.0
841.5024953725823	0.05103333333333327	-0.02746666666666669	1.0
841.5024953725823	0.05256666666666661	-0.02746666666666669	1.0
841.2853602707044	0.05706666666666661	-0.03080000000000003	1.0
840.9729826070386	0.05299999999999994	-0.02746666666666669	1.0
840.9724598176713	0.053633333333333276	-0.02933333333333336	1.0
840.8656230002907	0.056333333333333284	-0.02946666666666669	1.0
840.8656230002907	0.05383333333333327	-0.02626666666666669	1.0
840.8611381937973	0.053366666666666604	-0.02786666666666669	1.0
840.4495183319992	0.05243333333333327	-0.02586666666666669	1.0
840.5486977301731	0.04999999999999993	-0.029200000000000028	1.0
839.8160638716723	0.050966666666666605	-0.028266666666666693	1.0
839.8160638716723	0.050966666666666605	-0.028400000000000022	1.0
839.8201990741778	0.052966666666666606	-0.028000000000000025	1.0
839.2905495738316	0.05273333333333328	-0.028000000000000025	1.0
839.2893299458934	0.055099999999999934	-0.029866666666666694	1.0
839.0873841711732	0.05353333333333327	-0.026533333333333357	1.0
839.0873841711732	0.05379999999999993	-0.026000000000000023	1.0
839.0876121387557	0.0500666666666666	-0.026933333333333358	1.0
838.7178994901763	0.054799999999999946	-0.028933333333333356	1.0
838.2522171991558	0.049599999999999936	-0.02520000000000002	1.0
838.2522171991558	0.053133333333333276	-0.025600000000000022	1.0
838.2522171991558	0.05493333333333328	-0.02853333333333336	1.0
837.7288262260076	0.053366666666666604	-0.027733333333333356	1.0
837.5228569002846	0.053366666666666604	-0.02813333333333336	1.0
837.4161172189462	0.05226666666666661	-0.027066666666666694	1.0
837.1049380063615	0.04949999999999993	-0.027066666666666694	1.0
837.1049380063615	0.051533333333333264	-0.027600000000000027	1.0
837.1033849316233	0.05123333333333327	-0.026933333333333358	1.0
836.7913958240324	0.053166666666666605	-0.028933333333333356	1.0
836.7946080178632	0.05456666666666661	-0.030266666666666695	1.0
836.3757629441617	0.05323333333333327	-0.02506666666666669	1.0
836.3757629441617	0.05256666666666661	-0.025333333333333357	1.0
836.5808249569862	0.0518666666666666	-0.026400000000000024	1.0
836.2729663551183	0.050466666666666604	-0.024666666666666687	1.0
835.8584859545932	0.053633333333333276	-0.027200000000000023	1.0
835.8579667012854	0.053633333333333276	-0.024800000000000023	1.0
835.6533486920224	0.05103333333333327	-0.02786666666666669	1.0
835.6533486920224	0.05129999999999993	-0.02786666666666669	1.0
835.4392747975035	0.053799999999999945	-0.021333333333333353	1.0
835.2344329226257	0.055933333333333266	-0.005866666666666672	1.0
835.2343754260453	0.05593333333333328	0.008133333333333341	1.0
834.820901136336	0.059299999999999936	0.032266666666666693	1.0
834.820901136336	0.06736666666666662	0.10066666666666677	1.0
834.820901136336	0.07943333333333329	0.2677333333333335	1.0
834.7182079910494	0.0885333333333333	0.47306666666666675	1.0
834.1996845563655	0.10403333333333328	0.8430666666666667	1.0
833.9980166329541	0.10803333333333327	1.1114666666666668	1.0
833.9980166329541	0.10099999999999995	1.2525333333333337	1.0
833.8893085560314	0.10099999999999995	1.2364000000000002	1.0
833.8884118781348	0.09959999999999997	1.2029333333333336	1.0
833.8884118781348	0.09796666666666662	1.2029333333333336	1.0
833.3779362492276	0.09526666666666662	1.4569333333333332	1.0
833.3779362492276	0.09626666666666663	1.5357333333333334	1.0
832.9641155021554	0.10276666666666663	1.5600000000000003	1.0
832.9616418305121	0.08893333333333328	1.4193333333333333	1.0
832.9650874041488	0.08933333333333329	1.4022666666666668	1.0
832.544128466895	0.08629999999999996	1.4004	1.0
832.544128466895	0.08156666666666662	1.4717333333333333	1.0
832.6545556030254	0.08453333333333328	1.48	1.0
832.5486370632411	0.08683333333333328	1.4808000000000001	1.0
832.5486370632411	0.08683333333333328	1.468133333333333	1.0
831.7288287239282	0.0779333333333333	1.4086666666666667	1.0
831.7288287239282	0.08196666666666663	1.4086666666666667	1.0
831.528677563743	0.07796666666666661	1.4531999999999998	1.0
831.2170094482915	0.08306666666666661	1.53	1.0
831.1133262350727	0.08269999999999995	1.5730666666666666	1.0
830.9006253253551	0.08163333333333328	1.5369333333333335	1.0
830.3977916026207	0.07979999999999995	1.5194666666666667	1.0
830.3977916026207	0.08819999999999996	1.48	1.0
830.3953091225214	0.0840333333333333	1.6141333333333332	1.0
829.8902225605772	0.08643333333333329	1.4961333333333333	1.0
829.9860777059329	0.08063333333333328	1.4067999999999998	1.0
829.4777081732832	0.07966666666666661	1.4037333333333333	1.0
829.4777081732832	0.07966666666666661	1.3608000000000002	1.0
829.4766849761794	0.07916666666666662	1.4020000000000001	1.0
829.2655114946384	0.07743333333333328	1.4020000000000001	1.0
829.2702956698814	0.08216666666666661	1.4646666666666666	1.0
828.7572305955342	0.0840333333333333	1.4809333333333332	1.0
828.7572305955342	0.07759999999999995	1.377066666666667	1.0
828.6570723152148	0.07649999999999996	1.4105333333333336	1.0
828.6570345184211	0.07599999999999994	1.344	1.0
828.6570345184211	0.07696666666666661	1.3737333333333333	1.0
827.9468820716069	0.08723333333333329	1.4775999999999998	1.0
827.9468820716069	0.08283333333333327	1.4805333333333333	1.0
827.9440030859174	0.08083333333333328	1.4761333333333335	1.0
827.238601976453	0.08083333333333328	1.456	1.0
827.0309359735711	0.08173333333333328	1.395066666666667	1.0
827.0309359735711	0.08463333333333328	1.395066666666667	1.0
827.0309359735711	0.08496666666666662	1.3902666666666668	1.0
826.8337434995406	0.07989999999999996	1.3938666666666668	1.0
826.5217841531138	0.08633333333333328	1.3325333333333338	1.0
826.5217841531138	0.08103333333333328	1.4156000000000002	1.0
826.1211977165576	0.08406666666666661	1.4846666666666666	1.0
826.1211977165576	0.08116666666666662	1.4602666666666666	1.0
825.714568633583	0.08456666666666661	1.3217333333333336	1.0
825.7117373361436	0.07903333333333329	1.337866666666667	1.0
825.6161917758476	0.08633333333333329	1.3786666666666667	1.0
825.4055404713528	0.08283333333333329	1.4702666666666664	1.0
825.4055404713528	0.08283333333333329	1.48	1.0
825.4055404713528	0.08349999999999996	1.48	1.0
825.3083765537066	0.07933333333333327	1.48	1.0
825.2107381399053	0.08216666666666661	1.4558666666666666	1.0
824.8070839895578	0.08196666666666662	1.3809333333333333	1.0
824.8070839895578	0.08626666666666663	1.454	1.0
824.8070839895578	0.08259999999999995	1.3744	1.0
824.4045505942194	0.08056666666666662	1.2830666666666668	1.0
824.3072086807639	0.0840333333333333	1.3312000000000002	1.0
823.9969072819138	0.08683333333333328	1.4033333333333333	1.0
823.9969167355199	0.08599999999999995	1.458	1.0
823.9969167355199	0.08539999999999996	1.4225333333333332	1.0
823.4989457505092	0.08539999999999996	1.48	1.0
823.4924738370778	0.08699999999999995	1.48	1.0
822.4844304076254	0.08309999999999995	1.48	1.0
822.1942009380678	0.08429999999999996	1.4592	1.0
822.1942009380678	0.08639999999999996	1.3284000000000002	1.0
822.1917768065088	0.08569999999999996	1.319866666666667	1.0
822.1917768065088	0.0881333333333333	1.3205333333333336	1.0
821.8894642442766	0.08649999999999997	1.3980000000000001	1.0
821.8894642442766	0.08766666666666663	1.4794666666666667	1.0
821.8894642442766	0.09536666666666661	1.4749333333333332	1.0
821.5851426304278	0.08693333333333329	1.4614666666666665	1.0
821.8908565310709	0.08676666666666662	1.4522666666666666	1.0
821.5813159743033	0.08676666666666662	1.4029333333333334	1.0
820.9910486266269	0.09076666666666662	1.4676	1.0
820.9910486266269	0.08709999999999996	1.4676	1.0
821.0848827466483	0.0949333333333333	1.4775999999999998	1.0
820.6857718089403	0.0948333333333333	1.4101333333333332	1.0
820.5921504619575	0.0957333333333333	1.3290666666666668	1.0
820.1896222254918	0.08866666666666663	1.3289333333333335	1.0
820.1896222254918	0.08829999999999996	1.3557333333333337	1.0
819.7915266645493	0.0945333333333333	1.354	1.0
819.7913315185444	0.08979999999999995	1.3929333333333334	1.0
818.6883671872919	0.09109999999999994	1.3557333333333337	1.0
818.5953026458648	0.09523333333333328	1.3380000000000003	1.0
818.594521525708	0.09396666666666663	1.3160000000000003	1.0
818.594521525708	0.09396666666666663	1.2400000000000002	1.0
818.5926650972925	0.0899333333333333	1.2400000000000002	1.0
818.589189563662	0.08919999999999996	1.2400000000000002	1.0
818.589189563662	0.08736666666666662	1.246266666666667	1.0
818.2914522636984	0.0909333333333333	1.241866666666667	1.0
818.2914522636984	0.09016666666666663	1.239866666666667	1.0
818.1959346919272	0.08756666666666661	1.2437333333333336	1.0
818.1919988625111	0.09469999999999996	1.3553333333333335	1.0
817.7970455561453	0.09069999999999996	1.3241333333333336	1.0
817.4991911997587	0.09129999999999995	1.2033333333333338	1.0
817.4991911997587	0.09626666666666661	1.2408000000000001	1.0
817.4032078756755	0.09973333333333328	1.3226666666666669	1.0
816.9971983081396	0.08876666666666663	1.3185333333333336	1.0
816.8108758038201	0.08876666666666663	1.3201333333333336	1.0
816.2076103059358	0.09213333333333329	1.3201333333333336	1.0
816.2076103059358	0.09613333333333329	1.3534666666666668	1.0
816.2088716364792	0.09206666666666662	1.1644	1.0
815.3232686035979	0.09029999999999995	1.2225333333333335	1.0
815.3232686035979	0.1051333333333333	1.3905333333333334	1.0
815.1305969345567	0.09316666666666663	1.2761333333333336	1.0
815.1305969345567	0.09603333333333329	1.1602666666666668	1.0
814.7425871470208	0.0963333333333333	1.3109333333333337	1.0
814.7391599011464	0.09843333333333329	1.460933333333333	1.0
814.7369840181025	0.10319999999999996	1.4762666666666666	1.0
814.7390346493968	0.10269999999999996	1.4737333333333331	1.0
814.7390346493968	0.10269999999999996	1.4209333333333332	1.0
814.5351467180998	0.10469999999999996	1.3725333333333334	1.0
814.5351467180998	0.09666666666666662	1.3725333333333334	1.0
813.9504336974175	0.09616666666666662	1.2516000000000003	1.0
813.0710866366146	0.0946333333333333	1.3089333333333335	1.0
813.0710866366146	0.09756666666666663	1.357466666666667	1.0
813.162204218472	0.09856666666666662	1.4009333333333331	1.0
813.0701522597924	0.09469999999999996	1.3765333333333334	1.0
812.8628111786635	0.09823333333333328	1.335866666666667	1.0
811.7976650523215	0.10339999999999996	1.3996000000000002	1.0
811.7997034823208	0.09539999999999997	1.3836000000000002	1.0
811.7997034823208	0.09029999999999995	1.3225333333333336	1.0
811.4972593022717	0.09216666666666662	1.1602666666666668	1.0
811.4090746882113	0.09216666666666662	1.1616	1.0
811.4069598835742	0.09279999999999997	1.2189333333333336	1.0
811.3099584817224	0.10123333333333329	1.2189333333333336	1.0
811.3099584817224	0.09793333333333329	1.3058666666666667	1.0
811.3099584817224	0.10396666666666661	1.337866666666667	1.0
811.3088093364182	0.09633333333333328	1.3856000000000002	1.0
811.1079009227117	0.10309999999999996	1.4790666666666665	1.0
811.111072433901	0.10823333333333328	1.48	1.0
811.111072433901	0.1010333333333333	1.4376	1.0
810.6221321054078	0.10073333333333329	1.343466666666667	1.0
810.4258968841201	0.09936666666666663	1.366666666666667	1.0
810.2325615334156	0.10186666666666663	1.2906666666666669	1.0
809.93615905354	0.10186666666666663	1.2448000000000001	1.0
809.93615905354	0.0963333333333333	1.2773333333333337	1.0
809.93615905354	0.09916666666666663	1.2773333333333337	1.0
809.3653836391329	0.0991333333333333	1.2410666666666668	1.0
809.4570233962042	0.08896666666666662	1.239066666666667	1.0
809.455861857639	0.09739999999999994	1.2380000000000002	1.0
809.455861857639	0.09203333333333329	1.2468000000000004	1.0
808.2926939165872	0.09803333333333329	1.2600000000000005	1.0
808.1955978193176	0.10296666666666662	1.3325333333333338	1.0
808.1910310817836	0.10149999999999997	1.245466666666667	1.0
808.1024806916367	0.0955333333333333	1.2373333333333334	1.0
808.1024806916367	0.09746666666666663	1.2965333333333335	1.0
808.0100308355941	0.09746666666666663	1.3293333333333335	1.0
807.8106593273503	0.10086666666666662	1.3116000000000005	1.0
807.9038030734187	0.10126666666666663	1.3116000000000005	1.0
807.9038030734187	0.10573333333333328	1.324266666666667	1.0
807.9038030734187	0.10033333333333329	1.3225333333333336	1.0
807.7153020039518	0.10376666666666663	1.3206666666666669	1.0
807.4216948888388	0.0967333333333333	1.2673333333333334	1.0
807.4229066781994	0.09736666666666662	1.1733333333333333	1.0
807.0359781106686	0.09973333333333328	1.3221333333333336	1.0
807.0359781106686	0.10116666666666663	1.3858666666666666	1.0
806.0311140477073	0.09749999999999995	1.227466666666667	1.0
806.0738862225712	0.10119999999999996	1.2437333333333336	1.0
806.0738862225712	0.10196666666666662	1.235466666666667	1.0
806.0744309170891	0.10196666666666662	1.2144000000000001	1.0
806.0744309170891	0.09583333333333328	1.2166666666666668	1.0
804.8240872332682	0.10119999999999996	1.2166666666666668	1.0
804.8267867289204	0.0962333333333333	1.2080000000000004	1.0
804.6289373011537	0.10006666666666662	1.2049333333333336	1.0
804.6246742078641	0.10239999999999996	1.2072000000000003	1.0
804.6246742078641	0.09456666666666662	1.1598666666666668	1.0
804.4393905838615	0.09169999999999998	1.1460000000000001	1.0
804.4401240009322	0.09816666666666662	1.1601333333333335	1.0
804.3468508667308	0.09439999999999996	1.1601333333333337	1.0
804.3478257641744	0.09179999999999996	1.1588	1.0
804.3478257641744	0.09036666666666662	1.1601333333333337	1.0
804.0524269935069	0.09036666666666662	1.1744	1.0
804.0534733629879	0.09246666666666661	1.2336	1.0
803.4777626903241	0.09406666666666663	1.2336	1.0
803.4865476040709	0.09813333333333331	1.2425333333333335	1.0
803.4865476040709	0.09066666666666663	1.1968000000000003	1.0
802.7219203261368	0.09409999999999995	1.1828	1.0
802.7197834548937	0.10139999999999996	1.3193333333333335	1.0
802.7197834548937	0.10179999999999996	1.319066666666667	1.0
802.7197834548937	0.09486666666666663	1.3149333333333337	1.0
801.3792888595224	0.0932333333333333	1.1578666666666668	1.0
801.3792888595224	0.08819999999999996	1.1613333333333336	1.0
801.3899684927429	0.09526666666666662	1.1602666666666668	1.0
801.3869275840846	0.09526666666666662	1.1645333333333334	1.0
801.2823480289485	0.0954333333333333	1.2212000000000003	1.0
801.0576959121435	0.08969999999999995	1.2212000000000003	1.0
801.0576959121435	0.09906666666666662	1.3196000000000003	1.0
801.1901481275182	0.10193333333333329	1.295866666666667	1.0
801.1001835646435	0.09123333333333329	1.1638666666666668	1.0
801.0959452431888	0.08986666666666664	1.08	1.0
800.9075551280342	0.09446666666666663	1.08	1.0
800.9075551280342	0.09496666666666663	1.1512000000000002	1.0
800.8138662812815	0.09403333333333329	1.1574666666666666	1.0
800.4283598611297	0.09689999999999996	1.1606666666666667	1.0
800.4278745794841	0.09419999999999996	1.1625333333333336	1.0
