wavelength(nm)	flourescence PMT(V)	ti_saph Power (V)	Gain (V)
800.8142159676606	0.09626666666666663	1.2057333333333333	1.0
800.6256869252283	0.09333333333333328	1.1608	1.0
800.9080936532278	0.08793333333333328	1.1268000000000002	1.0
800.9081556502124	0.08793333333333328	1.1022666666666667	1.0
800.9081556502124	0.09313333333333329	1.0979999999999999	1.0
801.1047030921987	0.08586666666666662	1.0979999999999999	1.0
801.097345707782	0.09336666666666663	1.0844000000000003	1.0
801.1897454173521	0.09453333333333329	1.16	1.0
801.3855047873908	0.09443333333333329	1.2300000000000002	1.0
801.3855047873908	0.09536666666666661	1.2321333333333337	1.0
801.2818445899649	0.09286666666666661	1.1669333333333334	1.0
801.3892847072713	0.09526666666666662	1.1614666666666669	1.0
802.3387256526987	0.09309999999999995	1.16	1.0
802.5415002845879	0.09356666666666662	1.1600000000000001	1.0
802.5415002845879	0.09286666666666661	1.1612	1.0
802.7203087565282	0.09343333333333328	1.2996000000000003	1.0
802.7187832331487	0.09343333333333328	1.3200000000000003	1.0
803.1960668097911	0.1002333333333333	1.3196000000000003	1.0
803.4836498409306	0.1017333333333333	1.3196000000000003	1.0
803.4836498409306	0.09679999999999997	1.3005333333333335	1.0
803.959374143184	0.10203333333333328	1.312266666666667	1.0
804.0610201981137	0.09686666666666663	1.2809333333333337	1.0
804.3857283593074	0.09866666666666662	1.1718666666666668	1.0
804.3469511108324	0.09259999999999996	1.163866666666667	1.0
804.3469511108324	0.09346666666666664	1.1601333333333337	1.0
804.3469511108324	0.09129999999999995	1.16	1.0
804.4373352755209	0.0928333333333333	1.141066666666667	1.0
804.6264423188252	0.09079999999999995	1.1582666666666668	1.0
804.7340984310445	0.09599999999999996	1.1604	1.0
804.7296624333865	0.09599999999999996	1.193466666666667	1.0
804.7296624333865	0.09486666666666663	1.193466666666667	1.0
804.8286473892832	0.10019999999999996	1.2296000000000002	1.0
804.8285551155095	0.09423333333333328	1.2848000000000002	1.0
806.0747415361401	0.09726666666666663	1.216266666666667	1.0
806.0747316021319	0.1020333333333333	1.2908000000000004	1.0
806.0747316021319	0.09756666666666662	1.315466666666667	1.0
805.982396935156	0.0998333333333333	1.3197333333333336	1.0
806.0783817347917	0.10073333333333329	1.3193333333333335	1.0
806.8482090582318	0.09886666666666662	1.273066666666667	1.0
806.8482090582318	0.09229999999999995	1.1765333333333334	1.0
806.9406171675014	0.09726666666666661	1.2594666666666667	1.0
807.516437989936	0.09726666666666661	1.1661333333333335	1.0
807.516437989936	0.09973333333333328	1.1602666666666668	1.0
807.7147942605194	0.09109999999999996	1.1602666666666668	1.0
807.7147942605194	0.09049999999999994	1.1736000000000002	1.0
807.8089743276764	0.09446666666666662	1.2388000000000001	1.0
807.8100480874589	0.09509999999999996	1.319066666666667	1.0
807.8990188599925	0.10043333333333329	1.319866666666667	1.0
808.0113290380067	0.09926666666666663	1.271866666666667	1.0
808.0113290380067	0.09699999999999996	1.2401333333333335	1.0
808.0084085686296	0.0937333333333333	1.2400000000000002	1.0
807.9637466029614	0.09839999999999996	1.3114666666666668	1.0
808.1011994648815	0.09246666666666663	1.2709333333333335	1.0
808.194811935303	0.09246666666666663	1.1982666666666668	1.0
808.2897974881179	0.0971333333333333	1.1693333333333336	1.0
808.2897974881179	0.09629999999999996	1.1693333333333336	1.0
809.1635169052231	0.09159999999999996	1.2224000000000004	1.0
809.1635169052231	0.09799999999999996	1.3213333333333337	1.0
809.3645534947289	0.09703333333333329	1.2980000000000003	1.0
809.3645534947289	0.09926666666666663	1.2921333333333336	1.0
809.3645534947289	0.09306666666666663	1.2509333333333337	1.0
809.7515462169923	0.09846666666666663	1.3182666666666671	1.0
810.1371251033594	0.09986666666666662	1.2640000000000002	1.0
810.6279977730045	0.09503333333333329	1.1666666666666667	1.0
810.7203981504653	0.10119999999999997	1.3744	1.0
810.7203981504653	0.10119999999999997	1.3096000000000003	1.0
811.1078670931097	0.09986666666666662	1.3778666666666668	1.0
811.117619682509	0.1015333333333333	1.3778666666666668	1.0
811.1091152814391	0.1034333333333333	1.48	1.0
811.1068752773641	0.10453333333333328	1.48	1.0
811.1068752773641	0.10213333333333328	1.4738666666666667	1.0
811.3153085064565	0.09629999999999996	1.3962666666666665	1.0
811.4069984843586	0.0968333333333333	1.4008	1.0
811.4998270813714	0.1030333333333333	1.3861333333333334	1.0
811.4998270813714	0.10129999999999996	1.3025333333333338	1.0
811.4998270813714	0.0972333333333333	1.1797333333333335	1.0
811.5000645215537	0.09106666666666662	1.1605333333333336	1.0
811.7976531250889	0.09106666666666662	1.1661333333333335	1.0
812.6761794628247	0.09386666666666663	1.2344000000000002	1.0
812.8649800175235	0.09929999999999996	1.2344000000000002	1.0
812.8649800175235	0.09753333333333329	1.3973333333333335	1.0
813.0640142379676	0.09746666666666663	1.3624000000000003	1.0
813.0673511665274	0.09263333333333329	1.2757333333333336	1.0
813.1669633666096	0.09496666666666663	1.2380000000000002	1.0
813.1669633666096	0.09769999999999995	1.3141333333333336	1.0
813.1669633666096	0.09566666666666662	1.3165333333333336	1.0
814.0472173302107	0.09073333333333328	1.2904000000000002	1.0
814.5404900733963	0.09356666666666662	1.2772000000000003	1.0
814.5331204542409	0.10226666666666663	1.3808	1.0
814.7396278152437	0.10129999999999996	1.4243999999999999	1.0
814.7396278152437	0.10129999999999996	1.4629333333333334	1.0
814.7385661098541	0.09533333333333328	1.4755999999999998	1.0
814.7395569818163	0.10033333333333329	1.4755999999999998	1.0
814.7394321162823	0.09346666666666661	1.4443999999999997	1.0
815.319061313188	0.09856666666666664	1.4308	1.0
815.319061313188	0.09803333333333329	1.3381333333333336	1.0
815.3242363690277	0.09436666666666661	1.3797333333333335	1.0
815.325582893962	0.09779999999999997	1.3802666666666668	1.0
816.2085134335504	0.09916666666666663	1.3618666666666668	1.0
816.2056365536624	0.09083333333333328	1.201466666666667	1.0
816.2056365536624	0.09009999999999996	1.165866666666667	1.0
816.8092480153642	0.09136666666666664	1.3413333333333337	1.0
816.9119236579468	0.09199999999999996	1.3204000000000005	1.0
817.3068509530169	0.09199999999999996	1.3713333333333337	1.0
817.4011950307334	0.09073333333333328	1.3713333333333337	1.0
817.4011950307334	0.09523333333333328	1.3689333333333336	1.0
817.6105528346837	0.09726666666666661	1.3604000000000003	1.0
817.7974966085418	0.0986333333333333	1.3202666666666667	1.0
817.7974966085418	0.10016666666666664	1.3201333333333336	1.0
818.1951766441907	0.09073333333333329	1.3569333333333335	1.0
818.1951766441907	0.09416666666666662	1.3388000000000004	1.0
818.1951766441907	0.09226666666666662	1.2400000000000002	1.0
818.4980191906832	0.08713333333333328	1.2388000000000003	1.0
818.5926808806962	0.0901333333333333	1.2677333333333336	1.0
818.592440544383	0.08933333333333329	1.283466666666667	1.0
818.592440544383	0.08933333333333329	1.2440000000000002	1.0
818.6890085055834	0.08739999999999995	1.3229333333333335	1.0
818.6890085055834	0.09336666666666663	1.3229333333333335	1.0
819.7910111653999	0.09176666666666662	1.3498666666666668	1.0
819.7895509262519	0.09039999999999997	1.3657333333333335	1.0
819.7895509262519	0.09263333333333329	1.3806666666666667	1.0
819.7919109117279	0.08656666666666661	1.3616000000000001	1.0
820.496709835726	0.08719999999999996	1.4243999999999999	1.0
820.5896147120335	0.08953333333333328	1.3793333333333335	1.0
820.7833187052264	0.08939999999999995	1.3205333333333336	1.0
820.7833187052264	0.0879333333333333	1.319066666666667	1.0
820.9875063237881	0.09486666666666663	1.3976000000000002	1.0
821.0857206463944	0.08866666666666663	1.4262666666666666	1.0
821.5822558995753	0.08866666666666663	1.3994666666666669	1.0
821.5807539921348	0.08686666666666663	1.3994666666666669	1.0
821.5807539921348	0.08943333333333328	1.4796	1.0
821.5807539921348	0.0874333333333333	1.48	1.0
821.8876110610117	0.08906666666666661	1.4794666666666665	1.0
821.8903320921166	0.09056666666666663	1.4005333333333332	1.0
822.19541890667	0.08849999999999994	1.4	1.0
822.19541890667	0.08906666666666663	1.3228000000000002	1.0
822.1929579549975	0.08506666666666662	1.3200000000000003	1.0
822.2897151536708	0.08726666666666662	1.3189333333333335	1.0
822.2897151536708	0.09006666666666663	1.3182666666666671	1.0
823.4956940418311	0.08306666666666662	1.4210666666666665	1.0
823.4956940418311	0.08306666666666662	1.4789333333333334	1.0
823.4970231265185	0.08513333333333328	1.4789333333333334	1.0
823.4970231265185	0.08626666666666663	1.4784	1.0
824.0988786539459	0.08369999999999995	1.4425333333333332	1.0
824.0988786539459	0.08879999999999995	1.4389333333333332	1.0
824.3094752872707	0.08746666666666662	1.3973333333333333	1.0
824.3094752872707	0.08399999999999995	1.3724	1.0
824.3059385866906	0.08626666666666663	1.3509333333333335	1.0
824.401142988592	0.08109999999999995	1.3420000000000005	1.0
824.8058337458677	0.08266666666666662	1.4372	1.0
825.3078589737419	0.08449999999999996	1.4810666666666668	1.0
825.3078589737419	0.08376666666666663	1.4455999999999998	1.0
825.3078589737419	0.08376666666666663	1.4773333333333334	1.0
825.3099384113702	0.08373333333333327	1.551866666666667	1.0
825.6164409973331	0.0866333333333333	1.551866666666667	1.0
825.7149796930072	0.08143333333333329	1.4864	1.0
825.7149796930072	0.08349999999999995	1.4798666666666667	1.0
825.718967306025	0.08226666666666661	1.4408	1.0
825.719717718392	0.08516666666666663	1.3946666666666667	1.0
825.7178282979706	0.08579999999999996	1.3210666666666668	1.0
825.7178282979706	0.08103333333333329	1.3210666666666668	1.0
825.7178282979706	0.08189999999999996	1.4758666666666667	1.0
825.7178282979706	0.08149999999999995	1.3229333333333335	1.0
827.0306674568568	0.08263333333333328	1.3736000000000002	1.0
827.0317450704978	0.08263333333333328	1.3983999999999999	1.0
827.0317450704978	0.08173333333333328	1.4042666666666666	1.0
827.0317450704978	0.07626666666666662	1.4042666666666666	1.0
827.7424723578835	0.08136666666666661	1.3912	1.0
827.7454077255968	0.07859999999999995	1.48	1.0
828.0541412219118	0.08626666666666663	1.4792	1.0
828.6629460366187	0.08239999999999996	1.48	1.0
828.6629460366187	0.07853333333333329	1.5594666666666668	1.0
828.6607577343558	0.07546666666666663	1.4265333333333334	1.0
828.7575644736036	0.08183333333333329	1.3253333333333335	1.0
828.8625258264574	0.07943333333333329	1.3648000000000002	1.0
829.2648195463971	0.0776666666666666	1.4163999999999999	1.0
829.2648195463971	0.0776666666666666	1.3809333333333333	1.0
829.274399951862	0.07936666666666663	1.4678666666666664	1.0
829.274399951862	0.08326666666666661	1.4678666666666664	1.0
829.4767045947917	0.08299999999999995	1.4836	1.0
829.4746122573597	0.08286666666666662	1.4408	1.0
829.4746122573597	0.08519999999999994	1.3933333333333333	1.0
829.9894730435942	0.07813333333333328	1.4690666666666665	1.0
830.3993018473712	0.07959999999999995	1.4186666666666667	1.0
830.402102647563	0.08389999999999996	1.5150666666666668	1.0
831.2171134848696	0.08819999999999996	1.5728000000000002	1.0
831.2171134848696	0.08103333333333329	1.4746666666666666	1.0
831.1155183889175	0.08106666666666662	1.4582666666666668	1.0
831.2145016355181	0.08133333333333329	1.4852	1.0
831.2145417350722	0.08133333333333329	1.5604	1.0
831.2145417350722	0.08086666666666661	1.4882666666666666	1.0
831.2145417350722	0.07746666666666663	1.4882666666666666	1.0
832.1361138489925	0.07636666666666662	1.48	1.0
832.1390801201904	0.08093333333333327	1.4469333333333332	1.0
832.5511679851762	0.07886666666666663	1.4671999999999998	1.0
832.5567657824738	0.08809999999999996	1.4808	1.0
832.5567657824738	0.08629999999999996	1.4808000000000001	1.0
832.7004978672843	0.08506666666666662	1.4798666666666667	1.0
832.9630183208949	0.08646666666666662	1.422	1.0
832.9631015522433	0.08383333333333329	1.3981333333333335	1.0
832.9631015522433	0.08126666666666663	1.3958666666666666	1.0
832.9631015522433	0.08126666666666663	1.4724	1.0
833.3707997363713	0.09666666666666662	1.4818666666666667	1.0
833.3742128241025	0.0886333333333333	1.4818666666666667	1.0
833.8891220672899	0.09233333333333328	1.4805333333333333	1.0
833.8989080631094	0.10149999999999997	1.4168	1.0
833.8989080631094	0.1015333333333333	1.263066666666667	1.0
833.9953909989387	0.1035333333333333	1.275066666666667	1.0
834.2026457131179	0.11669999999999997	1.1489333333333336	1.0
834.8197383530522	0.09493333333333329	0.5554666666666668	1.0
834.8197441479865	0.08526666666666663	0.3017333333333336	1.0
834.8197441479865	0.07306666666666661	0.1666666666666668	1.0
834.8185550262612	0.06626666666666661	0.06866666666666672	1.0
835.2332319817255	0.06626666666666661	0.01893333333333335	1.0
835.2336349586228	0.06079999999999994	0.007200000000000007	1.0
835.8561839983204	0.06279999999999994	0.007200000000000007	1.0
835.8560533286941	0.05503333333333327	-0.02240000000000002	1.0
835.8560533286941	0.057433333333333274	-0.026533333333333357	1.0
836.2721713009017	0.052366666666666596	-0.025600000000000022	1.0
836.3769521242604	0.05299999999999994	-0.02386666666666669	1.0
836.7933056970468	0.05493333333333328	-0.027733333333333356	1.0
836.7931804075608	0.050833333333333265	-0.02173333333333335	1.0
836.7931804075608	0.051866666666666596	-0.024133333333333354	1.0
836.7914175611471	0.05466666666666661	-0.024800000000000023	1.0
837.1016688518871	0.05293333333333328	-0.02386666666666669	1.0
837.213623573614	0.05293333333333328	-0.02173333333333335	1.0
837.4145891351081	0.050466666666666604	-0.022933333333333354	1.0
837.4145891351081	0.052966666666666606	-0.022933333333333354	1.0
837.6318290214598	0.0523666666666666	-0.02040000000000002	1.0
837.7300531617973	0.053333333333333274	-0.02520000000000002	1.0
838.1430944359436	0.05353333333333327	-0.02280000000000002	1.0
838.1435080621029	0.04999999999999993	-0.020666666666666684	1.0
838.1435080621029	0.0540666666666666	-0.02680000000000002	1.0
838.5648085617769	0.05263333333333327	-0.022533333333333353	1.0
838.8786615677178	0.04973333333333327	-0.02240000000000002	1.0
839.0853328210112	0.05613333333333327	-0.024666666666666687	1.0
839.4005038597269	0.05199999999999994	-0.022533333333333353	1.0
839.4005038597269	0.05199999999999994	-0.023733333333333353	1.0
839.5085414455663	0.051966666666666606	-0.026533333333333357	1.0
839.8230778360976	0.05393333333333327	-0.026533333333333357	1.0
840.1331612973976	0.051799999999999936	-0.023333333333333355	1.0
840.3436224619837	0.05233333333333327	-0.023333333333333355	1.0
840.3436224619837	0.05173333333333327	-0.023733333333333353	1.0
840.4478497484814	0.05223333333333327	-0.02200000000000002	1.0
840.5527294686971	0.0542666666666666	-0.024800000000000023	1.0
840.8632935606306	0.0519666666666666	-0.024133333333333354	1.0
840.8677109009707	0.05133333333333327	-0.02200000000000002	1.0
840.8677109009707	0.051699999999999934	-0.023466666666666688	1.0
840.9746886460706	0.050466666666666604	-0.021866666666666687	1.0
840.9746886460706	0.050466666666666604	-0.023733333333333353	1.0
841.3866753990674	0.052866666666666604	-0.024400000000000022	1.0
841.6076979943856	0.05259999999999993	-0.024400000000000022	1.0
841.6076979943856	0.05463333333333328	-0.027200000000000023	1.0
841.7069591135984	0.0507666666666666	-0.022266666666666688	1.0
842.1275298531358	0.05476666666666661	-0.02506666666666669	1.0
842.1329480032476	0.05173333333333327	-0.024800000000000023	1.0
842.7622505340426	0.05256666666666661	-0.022533333333333353	1.0
842.7622505340426	0.0496666666666666	-0.023733333333333353	1.0
843.1230021104118	0.05416666666666659	-0.02400000000000002	1.0
843.0736102413077	0.0540666666666666	-0.023733333333333353	1.0
843.5040233924458	0.0518666666666666	-0.022933333333333354	1.0
843.5000552817082	0.0518666666666666	-0.024800000000000023	1.0
843.5000552817082	0.052866666666666604	-0.02426666666666669	1.0
844.2404555648988	0.0537666666666666	-0.02426666666666669	1.0
844.2351945524169	0.051999999999999935	-0.02386666666666669	1.0
844.447090651134	0.055699999999999944	-0.026000000000000023	1.0
844.5561608719348	0.0508666666666666	-0.022266666666666688	1.0
844.5561608719348	0.04889999999999994	-0.01973333333333335	1.0
844.7714992209142	0.052666666666666605	-0.02320000000000002	1.0
844.8737911448054	0.05169999999999994	-0.023066666666666687	1.0
844.875778564251	0.05413333333333327	-0.02426666666666669	1.0
844.9831257072071	0.05329999999999994	-0.02546666666666669	1.0
844.9810271002445	0.05409999999999994	-0.023066666666666687	1.0
844.8778971737199	0.051799999999999936	-0.022933333333333354	1.0
844.9800109748851	0.055466666666666595	-0.027333333333333355	1.0
844.9800109748851	0.055466666666666595	-0.022933333333333354	1.0
844.8774236888531	0.049599999999999936	-0.02280000000000002	1.0
844.9769942689433	0.05469999999999994	-0.02280000000000002	1.0
841.6042850486739	0.0495666666666666	-0.02400000000000002	1.0
841.6042850486739	0.05416666666666659	-0.02400000000000002	1.0
841.6042170668949	0.0548666666666666	-0.024400000000000022	1.0
841.6042170668949	0.05443333333333327	-0.02546666666666669	1.0
841.2899547064477	0.05723333333333327	-0.024533333333333355	1.0
841.2837947393359	0.0519666666666666	-0.022266666666666688	1.0
841.2837947393359	0.05283333333333328	-0.022533333333333353	1.0
840.8724924058209	0.053166666666666605	-0.02546666666666669	1.0
840.868302424344	0.05189999999999993	-0.02506666666666669	1.0
840.8724546750232	0.05249999999999994	-0.023066666666666687	1.0
840.7491673558719	0.05223333333333328	-0.02400000000000002	1.0
840.7491673558719	0.05223333333333328	-0.02546666666666669	1.0
840.3454837047306	0.054366666666666605	-0.021200000000000017	1.0
840.2421586351546	0.051266666666666606	-0.021200000000000017	1.0
839.9262061961033	0.050733333333333276	-0.02280000000000002	1.0
839.5031991952553	0.05379999999999993	-0.024133333333333354	1.0
839.5031991952553	0.05189999999999994	-0.02506666666666669	1.0
839.4012762533512	0.05069999999999994	-0.025733333333333355	1.0
839.0884802245646	0.05349999999999994	-0.021333333333333353	1.0
838.8787438981749	0.05589999999999994	-0.024533333333333355	1.0
838.5665970271161	0.05243333333333327	-0.02200000000000002	1.0
838.5665970271161	0.05223333333333327	-0.02240000000000002	1.0
838.5665970271161	0.05233333333333327	-0.02320000000000002	1.0
838.1440738777594	0.05233333333333327	-0.026400000000000024	1.0
837.7277208549656	0.057999999999999934	-0.02520000000000002	1.0
837.6300555697685	0.052133333333333275	-0.02520000000000002	1.0
837.6300555697685	0.052466666666666606	-0.027066666666666694	1.0
837.4152718787165	0.050233333333333276	-0.021866666666666687	1.0
837.1072823147693	0.05013333333333327	-0.023733333333333353	1.0
836.9006364801562	0.05449999999999993	-0.025333333333333357	1.0
836.8018625300106	0.05326666666666661	-0.023733333333333353	1.0
836.8018625300106	0.05143333333333327	-0.022933333333333354	1.0
836.7943084585291	0.05476666666666661	-0.02426666666666669	1.0
836.5834542142285	0.052699999999999934	-0.02280000000000002	1.0
836.2755942280586	0.053633333333333276	-0.02360000000000002	1.0
837.3991426294973	0.053633333333333276	-0.019466666666666684	1.0
837.3991426294973	0.0490666666666666	-0.024933333333333356	1.0
835.9062777074731	0.05303333333333327	-0.024933333333333356	1.0
835.4385216395381	0.05423333333333327	-0.026533333333333357	1.0
835.3382344393725	0.054533333333333274	-0.023333333333333355	1.0
835.2327135452269	0.05693333333333328	-0.009466666666666675	1.0
835.2327135452269	0.05359999999999993	0.008933333333333342	1.0
835.0376256160803	0.05963333333333327	0.03106666666666669	1.0
835.0310210505597	0.06709999999999994	0.07840000000000007	1.0
834.7171616622464	0.08133333333333329	0.30360000000000026	1.0
834.2990964669073	0.09519999999999997	0.6645333333333333	1.0
834.2990964669073	0.09519999999999997	0.6645333333333333	1.0
834.2065156584206	0.09519999999999997	0.6645333333333333	1.0
833.895390302145	0.09519999999999997	0.6645333333333333	1.0
833.8916082503059	0.10899999999999996	1.313466666666667	1.0
833.8916082503059	0.09853333333333329	1.4810666666666668	1.0
833.8916082503059	0.09413333333333329	1.5610666666666668	1.0
833.3723103635974	0.09413333333333329	1.5674666666666668	1.0
833.3732145181343	0.09956666666666662	1.5241333333333333	1.0
832.9644976079926	0.09076666666666663	1.5241333333333333	1.0
832.9644976079926	0.07949999999999996	1.3981333333333332	1.0
832.9644976079926	0.08376666666666663	1.3901333333333334	1.0
832.6558682256174	0.08653333333333328	1.4501333333333333	1.0
832.5500914491304	0.08923333333333329	1.48	1.0
832.1371223537371	0.08806666666666663	1.4936	1.0
832.1895111705891	0.0839666666666666	1.4977333333333336	1.0
832.1895111705891	0.08153333333333329	1.4533333333333334	1.0
832.1370941148214	0.07633333333333328	1.42	1.0
832.1370941148214	0.08063333333333329	1.4038666666666668	1.0
831.5330684469437	0.08063333333333329	1.5054666666666667	1.0
831.2201570981629	0.08203333333333328	1.5902666666666665	1.0
831.2174429383755	0.08096666666666662	1.5902666666666665	1.0
831.2174429383755	0.0794666666666666	1.5369333333333335	1.0
830.947994884751	0.08423333333333329	1.5597333333333336	1.0
830.3913136216631	0.07856666666666662	1.4785333333333333	1.0
830.3981482536223	0.08229999999999996	1.6037333333333335	1.0
829.9896400308129	0.08623333333333327	1.6403999999999996	1.0
829.9896400308129	0.08009999999999996	1.4775999999999998	1.0
829.4813958064161	0.07479999999999995	1.48	1.0
829.4813843085129	0.07756666666666662	1.3933333333333333	1.0
829.4790879322409	0.07753333333333329	1.3946666666666665	1.0
829.3795987276569	0.08279999999999996	1.457733333333333	1.0
829.3795987276569	0.08279999999999996	1.5488	1.0
828.8669163072911	0.08329999999999996	1.484133333333333	1.0
828.8612873555727	0.08376666666666661	1.484133333333333	1.0
828.6649144487382	0.08539999999999996	1.48	1.0
828.659782046197	0.08049999999999995	1.3634666666666668	1.0
828.659782046197	0.08219999999999995	1.3882666666666668	1.0
828.2493258847721	0.08156666666666662	1.4029333333333334	1.0
828.2483613983449	0.07759999999999995	1.5166666666666668	1.0
827.747318361604	0.08003333333333328	1.5348	1.0
827.7500974081781	0.08706666666666664	1.5244000000000002	1.0
827.7500974081781	0.08229999999999994	1.4773333333333332	1.0
827.239334878294	0.07933333333333328	1.4269333333333334	1.0
827.0253118251301	0.08079999999999996	1.3972	1.0
826.8381224682172	0.08079999999999996	1.3344000000000003	1.0
826.5266291004709	0.08336666666666662	1.3344000000000003	1.0
826.5266291004709	0.07693333333333328	1.3390666666666668	1.0
826.1196813540316	0.07833333333333328	1.3972	1.0
825.6146368319245	0.08216666666666661	1.4716	1.0
825.5754350160364	0.08433333333333329	1.3574666666666668	1.0
825.75863843664	0.07699999999999996	1.3672000000000002	1.0
825.75863843664	0.07683333333333328	1.4457333333333333	1.0
825.6174419157435	0.09116666666666662	1.4853333333333334	1.0
825.2650917009062	0.08909999999999996	1.546266666666667	1.0
825.2650917009062	0.08573333333333329	1.4810666666666665	1.0
825.3070034092664	0.08366666666666663	1.4842666666666666	1.0
825.3070034092664	0.08366666666666663	1.4413333333333334	1.0
825.3070034092664	0.08913333333333329	1.4602666666666666	1.0
824.8038490907111	0.08313333333333328	1.4602666666666666	1.0
824.497546400435	0.08853333333333328	1.4784	1.0
824.4021991010839	0.08599999999999995	1.3489333333333335	1.0
824.4021991010839	0.08306666666666662	1.3757333333333335	1.0
824.09731650483	0.08446666666666663	1.3958666666666668	1.0
823.9007913431793	0.08426666666666663	1.3956	1.0
823.9007913431793	0.08316666666666662	1.4242666666666666	1.0
823.4993547337367	0.08706666666666663	1.4788	1.0
823.5004481841357	0.08926666666666662	1.48	1.0
823.5004481841357	0.08216666666666661	1.4409333333333332	1.0
822.4858579045863	0.08819999999999996	1.3645333333333336	1.0
822.1937525876195	0.08819999999999996	1.3232000000000002	1.0
822.2000924567072	0.08586666666666663	1.3229333333333337	1.0
821.8874800069384	0.0875333333333333	1.3229333333333337	1.0
821.8874800069384	0.08769999999999996	1.3902666666666668	1.0
821.8914209452062	0.08863333333333329	1.4786666666666666	1.0
821.8884798775271	0.08776666666666663	1.48	1.0
821.8892748110784	0.08866666666666663	1.4796	1.0
821.5811008497606	0.08886666666666662	1.4770666666666667	1.0
821.5811008497606	0.08869999999999996	1.4458666666666666	1.0
820.9909122692247	0.08779999999999995	1.3988	1.0
820.7823617391479	0.08763333333333329	1.4705333333333332	1.0
820.5895702065017	0.09269999999999996	1.478	1.0
820.5916867737772	0.09269999999999996	1.3878666666666668	1.0
820.5916867737772	0.09169999999999998	1.3313333333333337	1.0
820.5919786956217	0.09196666666666663	1.3313333333333337	1.0
819.7877201621055	0.0865333333333333	1.4114666666666666	1.0
819.7922485019657	0.09549999999999997	1.3777333333333335	1.0
819.7876678069221	0.08909999999999996	1.3974666666666666	1.0
819.7876678069221	0.08783333333333329	1.3901333333333334	1.0
818.5966442130576	0.09329999999999995	1.321866666666667	1.0
818.590803981578	0.09236666666666662	1.3085333333333335	1.0
818.4980899248964	0.08863333333333329	1.2400000000000002	1.0
818.5000449057402	0.09349999999999996	1.2669333333333335	1.0
818.5000449057402	0.09749999999999995	1.3125333333333338	1.0
818.2880958751283	0.09749999999999995	1.2400000000000002	1.0
818.2880958751283	0.08366666666666663	1.342666666666667	1.0
818.1966054945348	0.08986666666666662	1.342666666666667	1.0
817.4995110976506	0.09486666666666663	1.3994666666666669	1.0
817.4995110976506	0.09379999999999995	1.307866666666667	1.0
817.4999414555474	0.09729999999999996	1.2594666666666667	1.0
817.40477429246	0.0918333333333333	1.3084000000000002	1.0
817.40477429246	0.09539999999999997	1.3206666666666669	1.0
816.9076426770988	0.09173333333333328	1.3204000000000002	1.0
816.9076426770988	0.09389999999999996	1.3224000000000002	1.0
816.809039908314	0.09546666666666662	1.3173333333333335	1.0
816.2078777321705	0.0986333333333333	1.2197333333333336	1.0
815.3200299974015	0.09736666666666662	1.358266666666667	1.0
815.3189875719137	0.09736666666666662	1.4	1.0
815.3189875719137	0.0949333333333333	1.4001333333333335	1.0
815.3200621178869	0.10013333333333328	1.4001333333333335	1.0
815.3235094865221	0.10069999999999996	1.3810666666666669	1.0
815.3235094865221	0.09636666666666663	1.3370666666666668	1.0
814.7403516174602	0.09729999999999994	1.4745333333333335	1.0
814.7403516174602	0.0966333333333333	1.4782666666666666	1.0
814.7384313384092	0.09613333333333329	1.4464	1.0
814.7365686481173	0.1029333333333333	1.4304000000000001	1.0
814.4130152670438	0.10116666666666663	1.4113333333333333	1.0
814.4130152670438	0.0929333333333333	1.3229333333333337	1.0
814.4130152670438	0.09286666666666663	1.2501333333333335	1.0
814.4130152670438	0.09286666666666663	1.315866666666667	1.0
813.0745576647382	0.09876666666666663	1.3628000000000002	1.0
813.0767351840485	0.09586666666666661	1.3628000000000002	1.0
813.0734898565796	0.09606666666666662	1.3202666666666667	1.0
812.8700422923921	0.10326666666666663	1.3201333333333336	1.0
812.8700422923921	0.09683333333333329	1.3248000000000002	1.0
811.7113478322023	0.10239999999999995	1.3952000000000002	1.0
811.7989711169924	0.10046666666666662	1.3417333333333337	1.0
811.5001564466012	0.10186666666666663	1.3561333333333334	1.0
811.5001290118299	0.09573333333333328	1.1788	1.0
811.5001290118299	0.09129999999999995	1.1616	1.0
811.4069516995205	0.09593333333333329	1.185066666666667	1.0
811.4094207380891	0.1000333333333333	1.2812000000000003	1.0
811.402882227117	0.1000333333333333	1.3849333333333333	1.0
811.4067743438948	0.10083333333333329	1.3849333333333333	1.0
811.4067743438948	0.10276666666666663	1.4028	1.0
811.1088879356915	0.10009999999999995	1.4706666666666666	1.0
811.1098547387652	0.09846666666666662	1.48	1.0
810.9079889378329	0.10536666666666662	1.4455999999999998	1.0
810.9079889378329	0.09943333333333328	1.3198666666666667	1.0
810.6277935145789	0.10179999999999997	1.3369333333333335	1.0
810.2394346171559	0.09789999999999996	1.3401333333333336	1.0
809.937643989662	0.10069999999999996	1.2432	1.0
809.4497980711191	0.09803333333333329	1.3152000000000001	1.0
809.4497980711191	0.10143333333333328	1.3128000000000002	1.0
809.4542911602176	0.10143333333333328	1.2289333333333337	1.0
809.4542911602176	0.10276666666666663	1.1948	1.0
809.4555632977874	0.09636666666666661	1.1948	1.0
808.1922544936382	0.09853333333333329	1.2285333333333335	1.0
808.1922544936382	0.09816666666666662	1.267466666666667	1.0
808.1987716778165	0.09949999999999996	1.350666666666667	1.0
808.1057061080787	0.10346666666666661	1.321866666666667	1.0
808.1023649162552	0.10209999999999995	1.2490666666666668	1.0
808.0058742827641	0.0968333333333333	1.3148000000000002	1.0
808.0058742827641	0.1025333333333333	1.335866666666667	1.0
807.9073327067442	0.0976333333333333	1.2400000000000002	1.0
807.8086844363445	0.09679999999999996	1.2470666666666668	1.0
807.8086844363445	0.09679999999999996	1.2704000000000002	1.0
807.7156332673003	0.10213333333333328	1.2945333333333333	1.0
807.7156332673003	0.09956666666666662	1.2945333333333333	1.0
807.5174755489905	0.10043333333333328	1.2253333333333336	1.0
807.4170173040253	0.09856666666666662	1.1908	1.0
807.029346543639	0.10473333333333329	1.3017333333333336	1.0
806.6438557053814	0.09773333333333328	1.3124000000000002	1.0
806.6438557053814	0.09239999999999995	1.212666666666667	1.0
806.0764139415777	0.10286666666666662	1.2956000000000003	1.0
806.0747770112691	0.09546666666666662	1.2336	1.0
805.7812755230461	0.09576666666666664	1.2229333333333336	1.0
805.7808315908093	0.09909999999999997	1.2441333333333333	1.0
804.8233572300672	0.09909999999999997	1.3024	1.0
804.8233572300672	0.0992333333333333	1.2240000000000002	1.0
804.6274670474752	0.09416666666666662	1.2240000000000002	1.0
804.7253505759826	0.10073333333333329	1.2336	1.0
804.7253505759826	0.09956666666666662	1.2036000000000002	1.0
804.4401501201122	0.09826666666666663	1.1650666666666667	1.0
804.4401501201122	0.10303333333333328	1.1881333333333335	1.0
804.4406193202983	0.10023333333333329	1.1780000000000002	1.0
804.347010249127	0.09363333333333329	1.1597333333333333	1.0
804.2525883006674	0.09796666666666662	1.1601333333333335	1.0
804.0547899018804	0.08839999999999996	1.1733333333333336	1.0
804.0547899018804	0.09366666666666662	1.2101333333333335	1.0
803.6742959480093	0.09366666666666662	1.2264000000000002	1.0
803.4880155849027	0.10093333333333329	1.2501333333333335	1.0
802.6766238148767	0.09849999999999995	1.2501333333333335	1.0
802.8557610624122	0.09633333333333328	1.186266666666667	1.0
802.8557610624122	0.0938333333333333	1.2581333333333335	1.0
802.7213308209782	0.10329999999999996	1.3200000000000003	1.0
801.5777075959561	0.0972333333333333	1.2761333333333336	1.0
801.3813963729888	0.09209999999999996	1.1777333333333335	1.0
801.3813963729888	0.09749999999999995	1.1753333333333336	1.0
801.3855271182932	0.10049999999999996	1.1793333333333336	1.0
801.1930990713062	0.09719999999999995	1.245466666666667	1.0
801.2845112926141	0.0982333333333333	1.3205333333333336	1.0
801.192204204685	0.0982333333333333	1.3765333333333336	1.0
801.192204204685	0.10096666666666664	1.2801333333333336	1.0
801.1899274978606	0.08999999999999996	1.2801333333333336	1.0
801.0986393681598	0.09236666666666662	1.1361333333333334	1.0
801.0986393681598	0.09216666666666662	1.08	1.0
800.8135853806554	0.09619999999999995	1.0960000000000003	1.0
800.8135853806554	0.09143333333333328	1.1581333333333335	1.0
800.8133516679552	0.09109999999999994	1.16	1.0
800.4318555950244	0.09036666666666662	1.1628	1.0
800.3376773738203	0.09773333333333328	1.1578666666666668	1.0
800.3396850183724	0.09463333333333329	1.0912	1.0
800.3396850183724	0.08913333333333329	1.1374666666666668	1.0
