wavelength(nm)	flourescence PMT(V)	ti_saph Power (V)	Gain (V)
801.1919796084309	0.09456666666666663	1.312666666666667	1.0
801.1919968900522	0.09219999999999995	1.312666666666667	1.0
801.1907155648418	0.0992333333333333	1.311866666666667	1.0
801.1890593540489	0.0998333333333333	1.307466666666667	1.0
801.1931215716668	0.09589999999999996	1.2632	1.0
801.1931215716668	0.09669999999999995	1.2028	1.0
801.0950120995965	0.09619999999999995	1.2908000000000004	1.0
801.1897944569096	0.10156666666666661	1.3145333333333336	1.0
801.1892643903597	0.10169999999999996	1.3316000000000003	1.0
801.1922596416427	0.10336666666666662	1.3282666666666667	1.0
801.1922596416427	0.10556666666666663	1.3340000000000003	1.0
801.2847086999965	0.10556666666666663	1.315066666666667	1.0
801.0594129561659	0.10459999999999996	1.317866666666667	1.0
801.1906835769101	0.10036666666666662	1.2933333333333337	1.0
801.1906835769101	0.09753333333333329	1.2933333333333337	1.0
801.0997078950198	0.10356666666666663	1.2581333333333335	1.0
801.0997078950198	0.0977333333333333	1.2704	1.0
801.1933770982723	0.09613333333333329	1.2729333333333337	1.0
801.1869700024866	0.09896666666666662	1.2544000000000002	1.0
801.0982729200086	0.09479999999999995	1.2697333333333336	1.0
801.0996002875039	0.09129999999999995	1.1980000000000004	1.0
801.0996002875039	0.09526666666666662	1.2309333333333337	1.0
801.1898731052584	0.10056666666666662	1.307066666666667	1.0
801.1900884433853	0.10399999999999997	1.3197333333333336	1.0
801.1914303966201	0.10399999999999997	1.3318666666666668	1.0
801.1939895590447	0.09909999999999997	1.3573333333333337	1.0
801.1939895590447	0.09756666666666663	1.3573333333333337	1.0
801.1939704792095	0.09609999999999998	1.3585333333333336	1.0
801.1897124949834	0.0947333333333333	1.374266666666667	1.0
801.1921487935518	0.10786666666666664	1.360266666666667	1.0
801.1937129373764	0.10296666666666662	1.3797333333333335	1.0
801.1931472041997	0.10316666666666661	1.3681333333333334	1.0
801.1931472041997	0.1002333333333333	1.3337333333333334	1.0
801.191098251163	0.10459999999999996	1.3482666666666667	1.0
801.1873385614253	0.10156666666666662	1.3424000000000003	1.0
801.2389336184809	0.10126666666666663	1.2898666666666667	1.0
801.3922104203367	0.10126666666666663	1.1704	1.0
801.3922104203367	0.09086666666666662	1.1617333333333335	1.0
802.72114778452	0.09036666666666662	1.1617333333333335	1.0
802.7212182882294	0.09883333333333329	1.245066666666667	1.0
802.7199703773032	0.09323333333333328	1.3200000000000003	1.0
802.9013368380938	0.09466666666666662	1.3086666666666669	1.0
802.9013368380938	0.09969999999999997	1.3005333333333335	1.0
803.484998509055	0.1005333333333333	1.3012000000000001	1.0
803.4824127863559	0.09506666666666662	1.3053333333333337	1.0
804.0603473407816	0.09883333333333329	1.233866666666667	1.0
804.1491476234507	0.09469999999999996	1.1633333333333333	1.0
804.1491476234507	0.09259999999999996	1.1612	1.0
804.3404218292072	0.09906666666666662	1.1637333333333333	1.0
804.2439909710125	0.09906666666666662	1.1598666666666668	1.0
804.2439909710125	0.09289999999999995	1.1598666666666668	1.0
804.4362641793313	0.09149999999999996	1.1436000000000002	1.0
804.6229534685516	0.09186666666666662	1.1581333333333335	1.0
804.6229534685516	0.0919333333333333	1.1449333333333336	1.0
804.6247062192598	0.08979999999999996	1.16	1.0
804.8284933264033	0.0972333333333333	1.1674666666666669	1.0
804.8244969247248	0.09406666666666663	1.2121333333333337	1.0
804.8262334908046	0.09346666666666663	1.2321333333333335	1.0
804.8262334908046	0.09256666666666663	1.2364000000000002	1.0
805.8717921097775	0.09289999999999997	1.1988	1.0
805.872860956798	0.09939999999999995	1.2036000000000002	1.0
806.0711514178448	0.09939999999999995	1.2596000000000003	1.0
806.0734680259175	0.09666666666666662	1.2596000000000003	1.0
806.0734680259175	0.09503333333333329	1.2686666666666668	1.0
806.2640210087133	0.10019999999999996	1.306666666666667	1.0
806.9370466937969	0.1021333333333333	1.3125333333333338	1.0
806.8955383138867	0.10053333333333328	1.2212000000000003	1.0
807.0330755295025	0.10136666666666663	1.3197333333333336	1.0
807.0330755295025	0.10473333333333329	1.2809333333333337	1.0
807.4209064197803	0.0963333333333333	1.16	1.0
807.7154682128476	0.09353333333333329	1.16	1.0
807.7104298218234	0.09673333333333328	1.245466666666667	1.0
807.8105669127127	0.10183333333333329	1.324266666666667	1.0
807.8105669127127	0.10183333333333329	1.3648000000000002	1.0
807.8035997887578	0.09873333333333328	1.3648000000000002	1.0
807.8035883680998	0.0972333333333333	1.3196000000000003	1.0
808.1046657616864	0.10096666666666664	1.2466666666666668	1.0
808.1047949036392	0.09463333333333329	1.2396000000000003	1.0
808.1047050527051	0.09793333333333329	1.2694666666666667	1.0
808.1047050527051	0.09816666666666662	1.2121333333333335	1.0
808.1971924290691	0.09416666666666662	1.1772000000000002	1.0
809.0632843691814	0.09479999999999997	1.1762666666666668	1.0
809.4512212423977	0.10699999999999996	1.275066666666667	1.0
809.4512212423977	0.09739999999999996	1.2633333333333334	1.0
809.4512212423977	0.1017333333333333	1.2450666666666668	1.0
809.3634890066381	0.1017333333333333	1.2264000000000002	1.0
809.4517467263124	0.09569999999999995	1.2248	1.0
809.8460468890531	0.09143333333333328	1.2248	1.0
810.2383766260382	0.0947333333333333	1.2336	1.0
810.2383766260382	0.09399999999999996	1.2168000000000003	1.0
810.6227676018859	0.09756666666666663	1.2077333333333335	1.0
810.6247153331532	0.09416666666666662	1.3288000000000002	1.0
811.1058356184674	0.10043333333333329	1.2864000000000002	1.0
811.1067158231589	0.1073333333333333	1.3621333333333336	1.0
811.1091382464078	0.10546666666666663	1.48	1.0
811.1091382464078	0.10336666666666663	1.4792	1.0
821.3146453130929	0.09753333333333328	1.4797333333333331	1.0
811.1067289630503	0.10419999999999997	1.4609333333333332	1.0
811.3097965015022	0.10419999999999997	1.4054666666666666	1.0
811.3097965015022	0.09956666666666662	1.3936000000000002	1.0
811.3097965015022	0.10166666666666661	1.3936000000000002	1.0
811.409560769146	0.10213333333333328	1.3069333333333335	1.0
811.4990610206534	0.09999999999999995	1.191466666666667	1.0
811.4980150290174	0.09866666666666662	1.1765333333333334	1.0
811.8011253935119	0.09309999999999996	1.1600000000000001	1.0
811.8011253935119	0.09169999999999996	1.16	1.0
811.802155634138	0.09819999999999995	1.162666666666667	1.0
811.7557065505881	0.09446666666666663	1.2324000000000004	1.0
812.8685068984461	0.10059999999999995	1.3816000000000002	1.0
813.0709918139879	0.09896666666666663	1.3690666666666667	1.0
813.0709918139879	0.09896666666666663	1.3477333333333334	1.0
813.0703897051266	0.09649999999999996	1.3893333333333333	1.0
813.166039780456	0.09719999999999997	1.3893333333333333	1.0
813.1604475286352	0.10136666666666663	1.4016	1.0
813.1604475286352	0.10263333333333328	1.4049333333333334	1.0
814.5339330642241	0.0913333333333333	1.2404000000000002	1.0
814.5339330642241	0.09736666666666662	1.2400000000000002	1.0
814.7389634294343	0.09676666666666661	1.364666666666667	1.0
814.7383059299169	0.09936666666666663	1.3824	1.0
814.7383075943281	0.0966333333333333	1.4	1.0
814.7373391850855	0.09836666666666663	1.4002666666666668	1.0
814.7373391850855	0.09753333333333329	1.4057333333333335	1.0
814.7418182954758	0.09919999999999994	1.4001333333333335	1.0
815.1306147386837	0.09919999999999994	1.3086666666666669	1.0
815.1338628053526	0.09349999999999996	1.2364000000000002	1.0
815.3205293223559	0.08933333333333329	1.2364000000000002	1.0
815.3205293223559	0.09933333333333327	1.3141333333333338	1.0
815.3210420938386	0.09873333333333328	1.3410666666666669	1.0
816.2129659138536	0.09349999999999996	1.2402666666666669	1.0
816.207791189245	0.09016666666666662	1.1601333333333335	1.0
816.9099494644831	0.09406666666666663	1.1868000000000003	1.0
817.3983537412829	0.09523333333333328	1.2988000000000002	1.0
817.3983537412829	0.09246666666666663	1.2965333333333335	1.0
817.4023870172305	0.0956333333333333	1.3200000000000003	1.0
817.497770801585	0.09453333333333329	1.314266666666667	1.0
817.497770801585	0.08696666666666664	1.1976	1.0
817.497770801585	0.08696666666666664	1.2500000000000002	1.0
817.497770801585	0.08709999999999996	1.2500000000000002	1.0
818.1966670026615	0.09536666666666661	1.3200000000000003	1.0
818.1966670026615	0.09276666666666661	1.2857333333333336	1.0
818.497926553683	0.08546666666666662	1.2172000000000003	1.0
818.4979260764484	0.08886666666666662	1.2390666666666668	1.0
818.4979260764484	0.08626666666666663	1.2524000000000004	1.0
818.5949599075947	0.08849999999999995	1.2564000000000002	1.0
818.5888537948716	0.08506666666666662	1.243466666666667	1.0
818.5949349373544	0.09779999999999997	1.3881333333333334	1.0
819.3888845523475	0.09316666666666663	1.3509333333333335	1.0
819.3888845523475	0.0971333333333333	1.3326666666666669	1.0
819.7895755090725	0.0971333333333333	1.3581333333333334	1.0
819.7887403001857	0.09386666666666663	1.3716000000000004	1.0
820.495715275768	0.09333333333333328	1.3716000000000004	1.0
820.5902922511897	0.09216666666666663	1.3260000000000003	1.0
820.6848818546581	0.08989999999999995	1.3202666666666667	1.0
820.6848818546581	0.08926666666666662	1.294666666666667	1.0
820.9872735737641	0.09556666666666662	1.3392000000000004	1.0
821.0838861791175	0.0918333333333333	1.4317333333333333	1.0
821.0869560394951	0.08973333333333329	1.4211999999999998	1.0
821.788516206545	0.0957333333333333	1.4050666666666667	1.0
821.788516206545	0.08889999999999997	1.4028	1.0
821.7935995991219	0.0900333333333333	1.48	1.0
821.8886630698381	0.09046666666666663	1.4766666666666666	1.0
821.8919609067349	0.09046666666666663	1.4105333333333332	1.0
821.8919609067349	0.09213333333333329	1.4105333333333332	1.0
821.8919609067349	0.08489999999999995	1.4	1.0
822.1925126899106	0.08593333333333329	1.3758666666666668	1.0
822.1925126899106	0.0901333333333333	1.3208000000000002	1.0
822.1925135063692	0.08536666666666662	1.3200000000000003	1.0
822.6954510029768	0.08956666666666663	1.3190666666666668	1.0
823.4983555877809	0.08683333333333329	1.3188000000000004	1.0
823.4983555877809	0.08473333333333329	1.4012	1.0
823.4984147507212	0.08733333333333329	1.4794666666666665	1.0
823.4989909928307	0.08283333333333329	1.4655999999999998	1.0
823.8102859672097	0.0841333333333333	1.4026666666666667	1.0
824.0952653835907	0.0841333333333333	1.3862666666666668	1.0
824.0952653835907	0.08443333333333329	1.3784000000000003	1.0
824.096750729662	0.08756666666666663	1.3784000000000003	1.0
824.096750729662	0.0880333333333333	1.3798666666666668	1.0
824.4044616307117	0.08969999999999995	1.3186666666666669	1.0
824.4044616307117	0.08503333333333328	1.2761333333333333	1.0
824.4044616307117	0.08689999999999995	1.4034666666666669	1.0
825.2074907936397	0.08399999999999996	1.3697333333333335	1.0
825.3066526279302	0.08623333333333329	1.3152000000000001	1.0
825.2139062321668	0.08696666666666664	1.3277333333333334	1.0
825.4479182477838	0.08626666666666663	1.3605333333333336	1.0
825.6125287754578	0.08333333333333329	1.4713333333333332	1.0
825.6125287754578	0.08333333333333329	1.4586666666666666	1.0
825.7125443884175	0.08399999999999996	1.3834666666666668	1.0
825.6153390770587	0.08219999999999995	1.3834666666666668	1.0
825.6195048209729	0.08103333333333329	1.3428000000000002	1.0
826.1195641172181	0.07906666666666662	1.3241333333333338	1.0
826.1195641172181	0.08479999999999996	1.4849333333333332	1.0
826.5247240473128	0.0884333333333333	1.4794666666666665	1.0
827.028202053274	0.08353333333333329	1.3820000000000001	1.0
827.028202053274	0.08176666666666663	1.4017333333333333	1.0
827.0308269691981	0.08299999999999995	1.3816000000000002	1.0
827.0308269691981	0.0777333333333333	1.3672000000000002	1.0
827.3418276506044	0.07623333333333329	1.3226666666666669	1.0
827.3331478595612	0.08433333333333329	1.3576000000000004	1.0
827.9405148988495	0.08433333333333329	1.4225333333333332	1.0
828.039488983658	0.08263333333333328	1.4661333333333333	1.0
828.662893785715	0.08569999999999996	1.4661333333333333	1.0
828.662893785715	0.08009999999999996	1.48	1.0
828.6584765069764	0.08263333333333328	1.4788	1.0
828.8558641681295	0.07986666666666663	1.4116	1.0
828.8558641681295	0.08096666666666662	1.3881333333333334	1.0
828.8601889535736	0.08233333333333329	1.48	1.0
828.8601889535736	0.08259999999999995	1.48	1.0
829.3785874619568	0.07643333333333328	1.3793333333333335	1.0
829.3750220629038	0.08043333333333329	1.4796	1.0
829.3774177664209	0.08386666666666662	1.4826666666666666	1.0
829.3774177664209	0.08269999999999995	1.4298666666666668	1.0
829.3774177664209	0.08269999999999995	1.4237333333333333	1.0
829.8917218128211	0.08366666666666663	1.4769333333333334	1.0
830.0831523900094	0.07829999999999995	1.4769333333333334	1.0
830.3987690647465	0.08133333333333329	1.4540000000000002	1.0
830.3964212730193	0.08193333333333327	1.4894666666666667	1.0
830.9098716925467	0.08119999999999995	1.4854666666666667	1.0
830.9098716925467	0.07826666666666661	1.4653333333333334	1.0
831.0055154033039	0.08446666666666662	1.4471999999999998	1.0
831.2131899751718	0.08216666666666661	1.5568000000000002	1.0
831.7264198857489	0.07723333333333329	1.5500000000000005	1.0
831.7243471148017	0.08179999999999996	1.4941333333333333	1.0
831.7243471148017	0.08006666666666663	1.48	1.0
831.9396723019053	0.08006666666666663	1.4056	1.0
832.1435720736383	0.08499999999999995	1.3978666666666668	1.0
832.55517900124	0.08126666666666663	1.3978666666666668	1.0
832.6468382084607	0.08469999999999996	1.4173333333333333	1.0
832.6468382084607	0.08696666666666664	1.48	1.0
832.9612894672587	0.08283333333333329	1.4790666666666665	1.0
833.0587301006677	0.08583333333333329	1.4065333333333334	1.0
832.9632932603591	0.08869999999999995	1.3913333333333335	1.0
833.3752199273438	0.08659999999999997	1.3744	1.0
833.3783941415793	0.09419999999999996	1.4	1.0
833.3783941415793	0.09539999999999994	1.48	1.0
833.6841881793806	0.09606666666666662	1.4809333333333332	1.0
833.9920008290767	0.1036333333333333	1.324266666666667	1.0
833.9970203011806	0.1036333333333333	1.2476000000000003	1.0
834.2974912770603	0.10403333333333328	1.193466666666667	1.0
834.2974912770603	0.10949999999999996	1.193466666666667	1.0
834.3020417521751	0.11149999999999996	0.9545333333333333	1.0
834.7157828269652	0.09283333333333328	0.5298666666666668	1.0
834.9193376058001	0.07826666666666664	0.2750666666666669	1.0
835.2310190679549	0.07266666666666662	0.15040000000000012	1.0
835.2310190679549	0.061466666666666614	0.026000000000000023	1.0
835.3340312904488	0.06003333333333328	0.0036000000000000034	1.0
835.4435059397092	0.054533333333333274	-0.02040000000000002	1.0
835.7476824726042	0.05739999999999995	-0.027733333333333356	1.0
836.0587003408126	0.05529999999999994	-0.02666666666666669	1.0
836.0597355789895	0.05529999999999994	-0.02626666666666669	1.0
836.0597355789895	0.05323333333333327	-0.028400000000000022	1.0
836.582721418961	0.05459999999999994	-0.028400000000000022	1.0
836.5827781318602	0.05353333333333327	-0.027733333333333356	1.0
836.5822118996185	0.054199999999999936	-0.02666666666666669	1.0
836.6860852773278	0.05289999999999993	-0.028000000000000025	1.0
836.6860852773278	0.05069999999999993	-0.022133333333333352	1.0
836.9953716356433	0.05569999999999993	-0.027066666666666694	1.0
837.1025524208607	0.051466666666666605	-0.027066666666666694	1.0
837.4178424207486	0.054333333333333275	-0.02813333333333336	1.0
837.4177676334014	0.05469999999999994	-0.03093333333333336	1.0
837.4177676334014	0.05386666666666661	-0.02933333333333336	1.0
837.7303307090051	0.05386666666666661	-0.02813333333333336	1.0
837.728546099213	0.05723333333333327	-0.028666666666666694	1.0
838.1463597139265	0.054533333333333274	-0.028666666666666694	1.0
838.1461298303342	0.052966666666666606	-0.02746666666666669	1.0
838.097378146713	0.05609999999999995	-0.029866666666666694	1.0
838.097378146713	0.0552666666666666	-0.028933333333333356	1.0
838.5633648517968	0.05279999999999994	-0.028800000000000027	1.0
838.8722007659062	0.05489999999999995	-0.02586666666666669	1.0
838.8722007659062	0.0552666666666666	-0.027733333333333356	1.0
839.4023169657926	0.05259999999999994	-0.029200000000000028	1.0
839.4023169657926	0.05469999999999994	-0.030266666666666695	1.0
839.502016201125	0.0549666666666666	-0.02973333333333336	1.0
839.9201894020981	0.0549666666666666	-0.029200000000000028	1.0
840.1368177296583	0.055733333333333274	-0.02813333333333336	1.0
840.4482908887759	0.052199999999999934	-0.02813333333333336	1.0
840.4482908887759	0.05483333333333327	-0.02746666666666669	1.0
840.6637274733985	0.05393333333333327	-0.02546666666666669	1.0
840.8673333489344	0.05256666666666661	-0.026533333333333357	1.0
840.8667509499944	0.052699999999999934	-0.027733333333333356	1.0
840.858160549787	0.05629999999999993	-0.02946666666666669	1.0
840.858160549787	0.0530666666666666	-0.027066666666666694	1.0
840.858160549787	0.05576666666666661	-0.028933333333333356	1.0
841.2865063046982	0.059033333333333264	-0.02746666666666669	1.0
841.2865090726949	0.050233333333333276	-0.02520000000000002	1.0
841.6031145643442	0.050233333333333276	-0.02546666666666669	1.0
841.8057831312353	0.05293333333333327	-0.025733333333333355	1.0
841.8057831312353	0.0517666666666666	-0.025733333333333355	1.0
842.0263953094689	0.05203333333333327	-0.024133333333333354	1.0
842.2318996469388	0.050999999999999934	-0.024400000000000022	1.0
842.2271319998647	0.05269999999999993	-0.026533333333333357	1.0
842.7648487888459	0.05603333333333327	-0.02853333333333336	1.0
842.7648487888459	0.049599999999999936	-0.02426666666666669	1.0
843.074385191588	0.05679999999999993	-0.026000000000000023	1.0
843.3927279108003	0.053566666666666596	-0.025733333333333355	1.0
843.5037250658822	0.05289999999999993	-0.027200000000000023	1.0
843.7088163955863	0.0540666666666666	-0.027733333333333356	1.0
844.133852923607	0.0540666666666666	-0.027066666666666694	1.0
844.133852923607	0.054366666666666605	-0.027066666666666694	1.0
844.4468398740815	0.05173333333333327	-0.024533333333333355	1.0
844.6595666470733	0.05303333333333327	-0.024533333333333355	1.0
844.6651517662931	0.053633333333333276	-0.02546666666666669	1.0
844.6159575902391	0.051266666666666606	-0.02626666666666669	1.0
844.6159575902391	0.050999999999999934	-0.027066666666666694	1.0
844.9814006785867	0.055466666666666595	-0.02400000000000002	1.0
844.8709051019651	0.0526666666666666	-0.029200000000000028	1.0
844.8709051019651	0.05189999999999994	-0.027733333333333356	1.0
843.0716185197359	0.0537666666666666	-0.02786666666666669	1.0
843.0733492268125	0.051833333333333266	-0.024400000000000022	1.0
842.7658430038391	0.05236666666666661	-0.026400000000000024	1.0
842.7611613332365	0.05093333333333327	-0.02506666666666669	1.0
842.7611613332365	0.056266666666666604	-0.02973333333333336	1.0
842.2316293498993	0.05403333333333327	-0.026533333333333357	1.0
842.2312882584247	0.05403333333333327	-0.026400000000000024	1.0
841.7081179462939	0.05053333333333328	-0.02680000000000002	1.0
841.6031100004259	0.0537666666666666	-0.02680000000000002	1.0
841.6031100004259	0.050766666666666606	-0.025600000000000022	1.0
841.4955637139087	0.05043333333333327	-0.02426666666666669	1.0
841.2913287567907	0.05089999999999994	-0.02520000000000002	1.0
841.2910744594157	0.05629999999999994	-0.030000000000000023	1.0
840.8674425490937	0.05109999999999994	-0.027333333333333355	1.0
840.8674425490937	0.053033333333333266	-0.02506666666666669	1.0
840.867102071063	0.05293333333333328	-0.026533333333333357	1.0
840.8710544397085	0.05329999999999994	-0.024400000000000022	1.0
840.8710544397085	0.052499999999999936	-0.025733333333333355	1.0
840.5466693987465	0.05499999999999994	-0.027200000000000023	1.0
840.340785002231	0.05499999999999994	-0.02746666666666669	1.0
840.340785002231	0.051433333333333275	-0.023733333333333353	1.0
839.8265464380163	0.051833333333333266	-0.023733333333333353	1.0
839.4049568768835	0.0527666666666666	-0.024533333333333355	1.0
839.4048825367373	0.0539666666666666	-0.02586666666666669	1.0
839.0901311991178	0.05183333333333328	-0.02520000000000002	1.0
839.0901311991178	0.0501666666666666	-0.024800000000000023	1.0
838.8800322996407	0.05283333333333327	-0.02320000000000002	1.0
838.8771946958207	0.05346666666666661	-0.026133333333333356	1.0
838.1467752271127	0.05189999999999994	-0.02973333333333336	1.0
838.1507352238416	0.054366666666666605	-0.02546666666666669	1.0
838.1507352238416	0.05416666666666659	-0.02666666666666669	1.0
837.7275021751343	0.05416666666666659	-0.026400000000000024	1.0
837.6242941752249	0.05303333333333327	-0.02746666666666669	1.0
837.5112733610697	0.05356666666666661	-0.02746666666666669	1.0
837.0578942190148	0.052133333333333275	-0.022666666666666686	1.0
837.1014265744137	0.0528666666666666	-0.026400000000000024	1.0
837.1014265744137	0.055833333333333277	-0.026933333333333358	1.0
837.0001992502256	0.05349999999999994	-0.026133333333333356	1.0
836.7884948957844	0.05346666666666661	-0.024800000000000023	1.0
836.6838236523622	0.05383333333333327	-0.023733333333333353	1.0
836.2753109966495	0.04819999999999993	-0.022266666666666688	1.0
836.2753109966495	0.05763333333333327	-0.024400000000000022	1.0
836.2752917666645	0.05009999999999993	-0.022933333333333354	1.0
836.061160585188	0.05009999999999993	-0.024666666666666687	1.0
836.6508836672244	0.052966666666666606	-0.025333333333333357	1.0
835.6466711289112	0.05479999999999993	-0.025333333333333357	1.0
835.6466711289112	0.05213333333333326	-0.026933333333333358	1.0
835.7492505964759	0.05466666666666661	-0.02586666666666669	1.0
835.3403617255069	0.05943333333333327	-0.015200000000000014	1.0
835.2330087386723	0.059066666666666615	0.024933333333333356	1.0
835.2330087386723	0.06319999999999994	0.05320000000000005	1.0
834.8172950496388	0.07459999999999996	0.15653333333333344	1.0
834.8172950496388	0.07463333333333329	0.24386666666666684	1.0
834.5123384588184	0.08103333333333329	0.36666666666666686	1.0
834.3037984843855	0.09626666666666663	0.7545333333333334	1.0
833.9921161517658	0.11209999999999996	1.0776000000000001	1.0
833.8952318728176	0.11209999999999996	1.2484000000000004	1.0
833.8952318728176	0.10186666666666663	1.2473333333333334	1.0
833.8913806183198	0.10183333333333329	1.2473333333333334	1.0
833.3794313208363	0.09226666666666662	1.3681333333333334	1.0
833.37826052265	0.09513333333333329	1.5216	1.0
833.3744393096805	0.09323333333333328	1.5588000000000002	1.0
833.3744393096805	0.09039999999999997	1.5054666666666667	1.0
832.9642577261586	0.08129999999999996	1.3968	1.0
832.9541665425039	0.0840333333333333	1.380266666666667	1.0
832.9541665425039	0.0833333333333333	1.3986666666666667	1.0
832.5521174783206	0.08443333333333329	1.4798666666666667	1.0
832.5521174783206	0.08489999999999995	1.48	1.0
832.5520327923837	0.08489999999999995	1.48	1.0
832.1406299413226	0.08366666666666663	1.48	1.0
832.1406299413226	0.08386666666666663	1.3789333333333336	1.0
831.7263214427782	0.08086666666666661	1.337866666666667	1.0
831.7273434800778	0.08389999999999996	1.3917333333333335	1.0
831.7273434800778	0.07916666666666662	1.4320000000000002	1.0
831.2191302641687	0.0788333333333333	1.5168	1.0
831.018412774477	0.07939999999999996	1.5034666666666665	1.0
830.5965731348563	0.08079999999999996	1.4009333333333334	1.0
830.4960246528589	0.0792333333333333	1.4733333333333334	1.0
830.4960246528589	0.07883333333333328	1.48	1.0
830.3954869124707	0.0799333333333333	1.5466666666666666	1.0
829.8859256375123	0.08359999999999995	1.4705333333333332	1.0
829.471556465828	0.08359999999999995	1.4757333333333333	1.0
829.4801786068139	0.07609999999999995	1.3693333333333335	1.0
829.3755747718515	0.07803333333333329	1.3693333333333335	1.0
829.3755747718515	0.07896666666666662	1.3964000000000003	1.0
829.3785991862699	0.07826666666666661	1.4714666666666665	1.0
829.2736495795261	0.08086666666666661	1.3978666666666668	1.0
828.8660073134486	0.07709999999999995	1.3949333333333334	1.0
828.5640226760704	0.08376666666666663	1.4788	1.0
828.5640226760704	0.07939999999999996	1.3944	1.0
828.5640226760704	0.07649999999999996	1.4049333333333334	1.0
828.3492350812721	0.08783333333333329	1.4650666666666665	1.0
828.039687102311	0.08186666666666663	1.4910666666666665	1.0
828.039687102311	0.08186666666666663	1.5524	1.0
828.039687102311	0.08146666666666662	1.4928	1.0
827.3351865906509	0.07893333333333329	1.4928	1.0
827.3350931927065	0.08226666666666661	1.4671999999999998	1.0
827.3380318161809	0.08286666666666662	1.3532000000000002	1.0
826.8342867149673	0.08023333333333328	1.3897333333333335	1.0
826.833222044496	0.08016666666666661	1.3926666666666667	1.0
826.833222044496	0.07683333333333328	1.3388000000000002	1.0
826.5265072666166	0.07879999999999995	1.4257333333333335	1.0
826.5265072666166	0.08533333333333329	1.4954666666666667	1.0
825.7120629471559	0.08779999999999995	1.4484	1.0
825.6172125177301	0.08253333333333329	1.415333333333333	1.0
825.6172125177301	0.08253333333333329	1.468	1.0
825.6164859292352	0.07769999999999996	1.4793333333333332	1.0
825.3095722288667	0.08443333333333329	1.4793333333333332	1.0
825.2112228161426	0.08869999999999995	1.48	1.0
825.3094194879459	0.08869999999999996	1.508	1.0
825.3094194879459	0.08259999999999995	1.4722666666666666	1.0
825.2111818038652	0.08503333333333328	1.4065333333333334	1.0
824.8065109155702	0.08736666666666662	1.4805333333333333	1.0
824.8065109155702	0.08549999999999995	1.3810666666666669	1.0
824.3050675691899	0.0816333333333333	1.295066666666667	1.0
824.0971684309126	0.08076666666666663	1.3465333333333334	1.0
824.0971684309126	0.08373333333333327	1.3806666666666667	1.0
823.9017363114098	0.08266666666666662	1.43	1.0
823.4927083543582	0.08266666666666662	1.4794666666666665	1.0
823.4927247111171	0.08559999999999995	1.48	1.0
822.693651190116	0.09059999999999996	1.48	1.0
822.693651190116	0.09029999999999995	1.48	1.0
822.2894580772343	0.0840333333333333	1.392666666666667	1.0
822.2894580772343	0.08656666666666661	1.3196000000000003	1.0
821.9831252146611	0.08783333333333329	1.3256000000000001	1.0
821.8901387261419	0.0811333333333333	1.3628000000000002	1.0
821.8901387261419	0.08633333333333328	1.3952000000000002	1.0
822.0261134360586	0.08436666666666662	1.4081333333333332	1.0
821.8848307818901	0.08523333333333329	1.4082666666666668	1.0
821.9324756682063	0.08493333333333329	1.4004	1.0
821.5832595470357	0.08493333333333329	1.418	1.0
821.0843136943819	0.08656666666666661	1.3954666666666669	1.0
821.0843136943819	0.08693333333333329	1.3954666666666669	1.0
821.0843026140443	0.08999999999999996	1.4705333333333332	1.0
820.5920625611511	0.08669999999999994	1.4538666666666666	1.0
820.5912143237208	0.08989999999999995	1.3906666666666667	1.0
820.4967249859203	0.08416666666666663	1.3246666666666669	1.0
820.4967249859203	0.0903333333333333	1.3741333333333337	1.0
819.7897250495016	0.08549999999999995	1.2998666666666667	1.0
819.7884323752359	0.08276666666666661	1.3560000000000003	1.0
819.7876176328792	0.09369999999999996	1.3781333333333337	1.0
818.5920789673613	0.08963333333333329	1.3145333333333338	1.0
818.5920789673613	0.08963333333333329	1.382266666666667	1.0
818.5920789673613	0.09073333333333328	1.3185333333333336	1.0
818.5926907484775	0.09426666666666662	1.3185333333333336	1.0
818.5937178763804	0.08726666666666662	1.2400000000000002	1.0
818.4950692089282	0.09186666666666662	1.2396000000000003	1.0
818.4950692089282	0.09216666666666663	1.2601333333333335	1.0
818.4950692089282	0.08693333333333329	1.2401333333333335	1.0
818.2878927076597	0.08916666666666662	1.2652	1.0
818.2878927076597	0.0954333333333333	1.3185333333333336	1.0
817.7950693889713	0.08806666666666663	1.3537333333333337	1.0
817.7950693889713	0.08343333333333329	1.2182666666666668	1.0
817.4957690476788	0.08446666666666662	1.1685333333333334	1.0
817.49559085579	0.08996666666666663	1.2149333333333336	1.0
816.9045184914452	0.08996666666666663	1.2677333333333336	1.0
816.904364962642	0.0882333333333333	1.2677333333333336	1.0
816.2098745595179	0.09173333333333329	1.3202666666666667	1.0
816.2098745595179	0.09806666666666662	1.3004000000000002	1.0
816.2097442954403	0.09626666666666663	1.1609333333333334	1.0
816.2097442954403	0.09659999999999996	1.2933333333333334	1.0
815.3247005750167	0.09926666666666663	1.3880000000000003	1.0
815.3235328313419	0.09629999999999996	1.3673333333333335	1.0
815.3235328313419	0.09876666666666661	1.3052000000000001	1.0
814.7397451983542	0.0947333333333333	1.2576000000000003	1.0
814.7352195036844	0.10316666666666663	1.4014666666666669	1.0
814.7384734163533	0.09279999999999997	1.4384	1.0
814.7393628673467	0.09279999999999997	1.4344	1.0
814.7393628673467	0.09273333333333329	1.4117333333333333	1.0
814.7372213422087	0.09853333333333329	1.4117333333333333	1.0
814.5334785352024	0.09536666666666661	1.3753333333333335	1.0
814.0468034797703	0.09386666666666663	1.317866666666667	1.0
813.159998269584	0.09409999999999995	1.2401333333333335	1.0
813.1626230457638	0.10166666666666661	1.2984000000000002	1.0
813.1626230457638	0.09523333333333328	1.4028	1.0
813.1646482884868	0.09866666666666662	1.4229333333333334	1.0
812.8613582449058	0.10359999999999996	1.3912	1.0
812.6779688491613	0.09576666666666662	1.3960000000000001	1.0
811.8907217685905	0.09253333333333327	1.3902666666666668	1.0
811.8907217685905	0.09253333333333327	1.3366666666666671	1.0
811.7936927200775	0.09526666666666662	1.3077333333333334	1.0
811.4989059708768	0.10233333333333329	1.3077333333333334	1.0
811.4070650708163	0.09179999999999996	1.1616	1.0
811.4113577851301	0.0924333333333333	1.1692000000000002	1.0
811.4113577851301	0.09326666666666664	1.3149333333333335	1.0
811.4071090213888	0.10449999999999995	1.3274666666666668	1.0
811.4058574535993	0.09836666666666663	1.3220000000000003	1.0
811.1101754493664	0.09249999999999996	1.3729333333333338	1.0
811.1092076243165	0.09996666666666662	1.4773333333333332	1.0
811.1092076243165	0.10403333333333328	1.48	1.0
811.1081214111996	0.10303333333333328	1.48	1.0
811.11057951656	0.10303333333333328	1.4277333333333335	1.0
811.11057951656	0.10626666666666663	1.3737333333333335	1.0
810.2354669656535	0.0993333333333333	1.3737333333333335	1.0
810.2354669656535	0.10056666666666662	1.349866666666667	1.0
809.4537364469403	0.09626666666666663	1.231466666666667	1.0
809.4538236120594	0.09349999999999997	1.231466666666667	1.0
809.4536185365391	0.09176666666666662	1.2098666666666669	1.0
809.452666072313	0.09356666666666663	1.1694666666666669	1.0
809.3668261321453	0.09819999999999995	1.1949333333333336	1.0
809.3668261321453	0.09539999999999994	1.2470666666666668	1.0
808.1959366540221	0.09776666666666661	1.2786666666666668	1.0
808.1037351227541	0.09859999999999997	1.2332000000000003	1.0
808.0993242867754	0.0911333333333333	1.2412000000000003	1.0
808.09934954999	0.0911333333333333	1.316666666666667	1.0
808.09934954999	0.10313333333333329	1.316666666666667	1.0
807.898805695819	0.09613333333333329	1.3200000000000003	1.0
807.805538403314	0.10086666666666662	1.2676000000000003	1.0
807.8045517441002	0.10036666666666663	1.3188000000000004	1.0
807.7147773067544	0.10339999999999996	1.325066666666667	1.0
807.7147773067544	0.1015333333333333	1.327866666666667	1.0
807.4663481365075	0.09599999999999996	1.275866666666667	1.0
807.4193989129684	0.09633333333333328	1.1868000000000003	1.0
807.0320514849266	0.09763333333333328	1.3188000000000002	1.0
806.2642162444092	0.09773333333333328	1.315866666666667	1.0
806.0745623834965	0.09879999999999996	1.256266666666667	1.0
806.0745623834965	0.09879999999999996	1.2304000000000002	1.0
806.0715421786024	0.09803333333333329	1.1824000000000001	1.0
806.0711049979558	0.09579999999999995	1.1824000000000001	1.0
805.7788750224521	0.10606666666666661	1.1749333333333334	1.0
804.8246155523539	0.09809999999999995	1.2238666666666667	1.0
804.8246155523539	0.09636666666666661	1.2198666666666669	1.0
804.6290020661003	0.09883333333333329	1.2366666666666668	1.0
804.6231836449591	0.0945333333333333	1.1909333333333336	1.0
804.6275439395159	0.09589999999999996	1.1601333333333335	1.0
804.3469066485402	0.09433333333333328	1.1445333333333334	1.0
804.3469066485402	0.09899999999999996	1.16	1.0
804.2408247895561	0.09903333333333329	1.16	1.0
804.3433332051352	0.09179999999999995	1.1600000000000001	1.0
804.1499620036536	0.09179999999999995	1.1652000000000002	1.0
803.9648503350029	0.09453333333333329	1.1636000000000002	1.0
803.9648503350029	0.09696666666666663	1.1636000000000002	1.0
803.6737406642195	0.09693333333333329	1.232	1.0
803.1968595202558	0.09886666666666662	1.2493333333333336	1.0
802.7178018739266	0.09623333333333328	1.2325333333333335	1.0
802.8145814342822	0.09933333333333329	1.2769333333333335	1.0
802.7200135399319	0.09349999999999996	1.3124000000000005	1.0
802.7200135399319	0.09973333333333328	1.3132000000000001	1.0
802.7211986800553	0.09916666666666663	1.3197333333333336	1.0
802.3381408924809	0.09576666666666664	1.1586666666666667	1.0
801.3902061021186	0.09659999999999996	1.1606666666666667	1.0
801.3816453405514	0.09659999999999996	1.1605333333333334	1.0
801.3816453405514	0.09349999999999997	1.1788	1.0
801.2832846406214	0.09399999999999994	1.1788	1.0
801.1912915746701	0.09613333333333328	1.2301333333333335	1.0
801.1912717593447	0.09656666666666662	1.3016000000000005	1.0
801.18977938849	0.09629999999999997	1.3170666666666668	1.0
801.18977938849	0.09803333333333329	1.2265333333333335	1.0
801.0979586513872	0.09309999999999995	1.1572	1.0
801.0969661398781	0.09163333333333329	1.0801333333333336	1.0
801.0988281779217	0.0929333333333333	1.0730666666666668	1.0
800.9061678470681	0.08909999999999997	1.0901333333333332	1.0
800.9061678470681	0.08873333333333329	1.096	1.0
800.9061678470681	0.08873333333333329	1.16	1.0
800.8120056835459	0.09386666666666663	1.1594666666666669	1.0
800.33851986071	0.09106666666666662	1.1594666666666669	1.0
