wavelength(nm)	flourescence PMT(V)	ti_saph Power (V)	Gain (V)
800.3413285752913	0.08999999999999996	1.1664	1.0
800.8133105395284	0.09929999999999994	1.1574666666666666	1.0
800.6262454294742	0.09419999999999996	1.1548000000000003	1.0
800.9032614505438	0.09346666666666663	1.1532000000000002	1.0
800.9032614505438	0.09223333333333329	1.1054666666666668	1.0
801.0989429558355	0.09223333333333329	1.0800000000000003	1.0
801.093847689238	0.08743333333333328	1.0800000000000003	1.0
801.0971045537208	0.08553333333333328	1.0800000000000003	1.0
801.1861493046674	0.09083333333333328	1.1541333333333335	1.0
801.1861493046674	0.09499999999999996	1.2096000000000005	1.0
801.3893009871136	0.09549999999999996	1.2776000000000003	1.0
801.3877857662018	0.09179999999999995	1.2064000000000001	1.0
801.3890278532463	0.09133333333333328	1.1544	1.0
802.716632758425	0.09706666666666663	1.1586666666666667	1.0
802.716632758425	0.09709999999999996	1.1585333333333336	1.0
802.6279761569439	0.09866666666666662	1.2797333333333336	1.0
802.6279761569439	0.10396666666666664	1.3200000000000003	1.0
803.1956527963117	0.09776666666666664	1.2593333333333336	1.0
803.47996554806	0.09776666666666664	1.1765333333333334	1.0
803.47996554806	0.09303333333333329	1.2664000000000002	1.0
803.9646655268772	0.0963333333333333	1.2664000000000002	1.0
803.9646655268772	0.09899999999999995	1.271866666666667	1.0
804.1503200626925	0.09696666666666663	1.1932	1.0
804.245378756355	0.0971333333333333	1.1628000000000003	1.0
804.245378756355	0.09509999999999996	1.2010666666666667	1.0
804.247325992014	0.09826666666666663	1.1682666666666668	1.0
804.4380858842276	0.09406666666666663	1.1520000000000001	1.0
804.6214077784222	0.09486666666666663	1.1340000000000001	1.0
804.6268742967709	0.09319999999999995	1.1532000000000002	1.0
804.6268742967709	0.09419999999999995	1.1677333333333335	1.0
804.7314759980997	0.09419999999999995	1.1925333333333334	1.0
804.826136734607	0.10039999999999996	1.2577333333333336	1.0
804.9175446856043	0.10006666666666662	1.2577333333333336	1.0
806.0721734062258	0.09816666666666662	1.215866666666667	1.0
806.0721734062258	0.09653333333333329	1.2612	1.0
806.0743710086209	0.10186666666666663	1.2961333333333336	1.0
806.073166681919	0.0966333333333333	1.3077333333333334	1.0
806.2642248946825	0.10143333333333328	1.3136000000000003	1.0
806.9401965240351	0.09866666666666664	1.3153333333333337	1.0
806.9384101760659	0.09669999999999995	1.2365333333333335	1.0
806.9384101760659	0.09479999999999997	1.2881333333333338	1.0
807.3273954753558	0.09393333333333329	1.1670666666666667	1.0
807.421041394207	0.09546666666666662	1.1601333333333337	1.0
807.421041394207	0.09546666666666662	1.1604	1.0
807.8087307128039	0.09239999999999995	1.1604	1.0
807.8087307128039	0.09973333333333328	1.235466666666667	1.0
807.8087282911277	0.09786666666666662	1.327466666666667	1.0
807.9437127876994	0.10319999999999996	1.3210666666666668	1.0
808.0081278657187	0.10126666666666663	1.3189333333333335	1.0
807.8996270484142	0.10099999999999995	1.3161333333333336	1.0
807.8996270484142	0.09816666666666662	1.3001333333333336	1.0
808.0037903059837	0.10136666666666663	1.3216	1.0
808.0994239087039	0.09289999999999995	1.3101333333333336	1.0
808.1034963007281	0.09189999999999997	1.2502666666666669	1.0
808.286015524027	0.09266666666666662	1.2385333333333335	1.0
808.286015524027	0.09266666666666662	1.2008000000000003	1.0
808.286015524027	0.09583333333333328	1.2929333333333337	1.0
809.453414292335	0.09886666666666663	1.2929333333333337	1.0
809.4570701662668	0.0929333333333333	1.2989333333333335	1.0
809.457050295631	0.09426666666666662	1.278666666666667	1.0
809.457050295631	0.09563333333333329	1.2366666666666668	1.0
809.457050295631	0.09253333333333329	1.2140000000000002	1.0
810.2402940437448	0.09446666666666663	1.253066666666667	1.0
810.6223103331488	0.09849999999999995	1.182666666666667	1.0
810.6223571238045	0.10346666666666661	1.337866666666667	1.0
810.6223571238045	0.09883333333333329	1.3789333333333333	1.0
811.1084519036173	0.09726666666666661	1.3508	1.0
811.1074457979008	0.09726666666666661	1.478	1.0
811.1066498151849	0.09869999999999997	1.4805333333333333	1.0
811.3085794837992	0.10606666666666663	1.4805333333333333	1.0
811.3085794837992	0.10726666666666664	1.4794666666666665	1.0
811.3106969908689	0.09799999999999998	1.4453333333333334	1.0
811.4102852481045	0.10189999999999995	1.3566666666666671	1.0
811.4999552878033	0.0966333333333333	1.3653333333333335	1.0
811.4070629531877	0.09596666666666663	1.3148000000000002	1.0
811.4070629531877	0.09569999999999995	1.2456000000000003	1.0
811.4984924802379	0.09063333333333329	1.1616	1.0
811.4984924802379	0.09436666666666663	1.1612	1.0
811.7996679971503	0.09529999999999997	1.1618666666666668	1.0
812.6768570938707	0.09976666666666661	1.2625333333333337	1.0
812.6768570938707	0.09976666666666661	1.4026666666666665	1.0
812.6778813594082	0.10196666666666662	1.3764000000000003	1.0
813.1654628523187	0.0971333333333333	1.3764000000000003	1.0
813.1654846774567	0.09903333333333329	1.3968	1.0
813.1675374720172	0.10579999999999996	1.4185333333333334	1.0
813.1675374720172	0.10166666666666661	1.4408	1.0
813.1675374720172	0.09639999999999996	1.2484000000000004	1.0
814.043700889201	0.0952333333333333	1.2397333333333336	1.0
814.534109797633	0.09479999999999995	1.2681333333333336	1.0
814.7381232626881	0.09973333333333328	1.3804	1.0
814.7370232952298	0.09736666666666662	1.4098666666666668	1.0
814.7370232952298	0.10249999999999995	1.4671999999999998	1.0
814.7381151534717	0.10249999999999995	1.438133333333333	1.0
814.7381197588824	0.10143333333333329	1.4045333333333334	1.0
814.7382687931865	0.10379999999999996	1.4045333333333334	1.0
815.1346972978154	0.09929999999999996	1.4013333333333333	1.0
815.1346972978154	0.09883333333333329	1.2329333333333334	1.0
815.1346972978154	0.09696666666666662	1.1602666666666668	1.0
815.3229785907806	0.08929999999999996	1.2453333333333336	1.0
816.2074723500075	0.09833333333333329	1.3256000000000001	1.0
816.2064450056511	0.09576666666666662	1.2445333333333337	1.0
816.2064450056511	0.08969999999999995	1.1657333333333335	1.0
816.8140522473835	0.08649999999999997	1.1852000000000003	1.0
816.9036187247889	0.09316666666666663	1.3200000000000003	1.0
816.9097898347491	0.09566666666666662	1.3088000000000004	1.0
817.4952986204637	0.09566666666666662	1.2298666666666669	1.0
817.4952986204637	0.09156666666666663	1.1696000000000002	1.0
817.8378777524166	0.08859999999999996	1.1696000000000002	1.0
817.795964584671	0.0914333333333333	1.1816000000000002	1.0
818.1940084721317	0.08683333333333329	1.2177333333333336	1.0
818.2899555210109	0.0903333333333333	1.3205333333333336	1.0
818.2899555210109	0.08756666666666663	1.2410666666666668	1.0
818.2903170335788	0.09076666666666663	1.2245333333333335	1.0
818.4976501207802	0.08723333333333329	1.2308000000000003	1.0
818.5911645406904	0.09159999999999996	1.2412000000000003	1.0
818.5902525756751	0.08966666666666663	1.2125333333333337	1.0
818.5902525756751	0.08513333333333328	1.2020000000000002	1.0
818.5902709959739	0.08429999999999994	1.2320000000000002	1.0
818.5945088334466	0.08429999999999994	1.286266666666667	1.0
819.7872665562302	0.0881333333333333	1.286266666666667	1.0
819.7872490665302	0.09116666666666662	1.3466666666666671	1.0
819.7872490665302	0.09539999999999996	1.3774666666666668	1.0
819.8862950373033	0.08753333333333328	1.3294666666666668	1.0
820.4898759947831	0.08799999999999995	1.4006666666666667	1.0
820.5893632220242	0.08629999999999995	1.4002666666666665	1.0
820.8218644584135	0.09056666666666663	1.3246666666666669	1.0
821.0853605018019	0.0913333333333333	1.3298666666666668	1.0
821.0853605018019	0.08996666666666663	1.4317333333333333	1.0
821.0853605018019	0.08893333333333328	1.4576	1.0
821.5803790170893	0.0879333333333333	1.4659999999999997	1.0
821.579308065027	0.0879333333333333	1.48	1.0
821.579308065027	0.08286666666666662	1.48	1.0
821.579308065027	0.0850333333333333	1.4037333333333333	1.0
821.888999567624	0.0910333333333333	1.4233333333333333	1.0
821.8888489402423	0.09146666666666661	1.4	1.0
822.2906790327479	0.09156666666666662	1.3990666666666667	1.0
822.2906790327479	0.08516666666666663	1.320266666666667	1.0
822.2906790327479	0.08443333333333328	1.3193333333333335	1.0
822.1949495665212	0.08889999999999997	1.3040000000000003	1.0
822.4844750423933	0.09146666666666663	1.3106666666666669	1.0
823.4963169882815	0.08836666666666661	1.3465333333333336	1.0
823.4964089714098	0.09179999999999995	1.4793333333333332	1.0
823.4964089714098	0.09179999999999995	1.4793333333333332	1.0
823.9035463469171	0.09686666666666663	1.4178666666666666	1.0
824.0010962425523	0.08729999999999996	1.4178666666666666	1.0
823.9961372672451	0.08729999999999996	1.3929333333333336	1.0
824.0921102272057	0.08429999999999994	1.3953333333333333	1.0
824.0921102272057	0.08559999999999995	1.3660000000000003	1.0
824.3071816699397	0.0832333333333333	1.3624	1.0
824.3071816699397	0.08566666666666661	1.3481333333333334	1.0
824.7103385042099	0.08493333333333329	1.354666666666667	1.0
824.7103385042099	0.08629999999999996	1.4805333333333333	1.0
824.7103385042099	0.08179999999999996	1.4340000000000002	1.0
825.2099473448136	0.08206666666666661	1.4373333333333334	1.0
825.3111193473247	0.08206666666666661	1.456	1.0
825.4087514125877	0.08399999999999995	1.48	1.0
825.6696353309184	0.0831333333333333	1.48	1.0
825.6154353437695	0.08203333333333328	1.4766666666666666	1.0
825.6154353437695	0.08356666666666662	1.3708000000000002	1.0
825.8086439037422	0.08243333333333329	1.3204000000000002	1.0
825.7135299771053	0.08266666666666662	1.3196000000000003	1.0
826.1158268340567	0.08093333333333329	1.3598666666666668	1.0
826.8291445608821	0.08309999999999995	1.4888	1.0
826.8291445608821	0.08099999999999996	1.4270666666666667	1.0
826.8343652131373	0.08329999999999996	1.3209333333333335	1.0
826.8343652131373	0.08013333333333328	1.3556000000000001	1.0
827.0314234531157	0.07966666666666661	1.4352	1.0
827.3403062220492	0.07966666666666661	1.361066666666667	1.0
827.3403062220492	0.07956666666666662	1.3204000000000005	1.0
827.3403062220492	0.08069999999999995	1.3204000000000005	1.0
828.046344725793	0.07996666666666663	1.4698666666666667	1.0
828.2542395230093	0.08433333333333329	1.4771999999999998	1.0
828.6591401108149	0.08033333333333328	1.5154666666666665	1.0
828.6591401108149	0.08336666666666662	1.488533333333333	1.0
828.6570246925608	0.08529999999999996	1.3850666666666667	1.0
828.856224721421	0.07736666666666663	1.3437333333333334	1.0
829.2709002040707	0.08126666666666661	1.4739999999999998	1.0
829.2644287667265	0.07993333333333329	1.3917333333333335	1.0
829.2644287667265	0.08279999999999996	1.3210666666666668	1.0
829.2709261347636	0.07776666666666661	1.3869333333333336	1.0
829.3759150634678	0.07776666666666661	1.5348	1.0
829.4761884742526	0.08176666666666663	1.4309333333333334	1.0
829.8893173506833	0.08026666666666661	1.4309333333333334	1.0
829.9862727916	0.07546666666666663	1.4788	1.0
829.9862727916	0.07719999999999994	1.48	1.0
830.0885876504763	0.08206666666666662	1.4567999999999999	1.0
830.3922335541163	0.08193333333333329	1.482	1.0
830.9020112935304	0.08049999999999995	1.5644000000000002	1.0
831.214145335962	0.08099999999999996	1.4836	1.0
831.214145335962	0.08419999999999994	1.4798666666666667	1.0
831.2140850823915	0.08176666666666663	1.5609333333333335	1.0
831.2093622364195	0.08106666666666662	1.64	1.0
831.7306852925186	0.08703333333333328	1.5819999999999999	1.0
831.7306852925186	0.08703333333333328	1.5104	1.0
831.7306852925186	0.07996666666666663	1.5240000000000002	1.0
831.7250859267753	0.0821333333333333	1.5240000000000002	1.0
832.2347187466569	0.0822333333333333	1.48	1.0
832.2347187466569	0.08326666666666661	1.3989333333333336	1.0
832.6568594664677	0.08206666666666661	1.48	1.0
832.6568594664677	0.08536666666666662	1.48	1.0
832.7611542225981	0.08806666666666663	1.4205333333333334	1.0
832.9602959380984	0.08249999999999995	1.3948000000000003	1.0
833.3763253187491	0.08586666666666662	1.3964000000000003	1.0
833.3763253187491	0.09476666666666662	1.4698666666666667	1.0
833.3763253187491	0.09639999999999996	1.5546666666666669	1.0
833.3763253187491	0.09639999999999996	1.5600000000000003	1.0
833.8905827166641	0.0963333333333333	1.3704	1.0
833.8918938257752	0.10409999999999997	1.3704	1.0
834.304253546564	0.10666666666666662	1.3037333333333336	1.0
834.304253546564	0.10519999999999996	1.2526666666666668	1.0
834.3053136437161	0.10829999999999994	1.1258666666666666	1.0
834.7177450336776	0.10846666666666661	0.8070666666666667	1.0
834.8160092851243	0.08059999999999995	0.33800000000000013	1.0
835.0329227292323	0.07723333333333328	0.18453333333333347	1.0
835.0329227292323	0.06653333333333329	0.059600000000000056	1.0
835.3300203585179	0.058899999999999945	0.03360000000000003	1.0
835.4360052020998	0.056399999999999936	-0.013733333333333346	1.0
835.6517287720067	0.056399999999999936	-0.021866666666666687	1.0
835.7537644328755	0.05323333333333327	-0.023733333333333353	1.0
836.2717194177253	0.0508666666666666	-0.023733333333333353	1.0
836.2717194177253	0.04993333333333327	-0.024400000000000022	1.0
836.5888950993253	0.051266666666666606	-0.027066666666666694	1.0
836.7906264580776	0.051666666666666604	-0.02520000000000002	1.0
836.5801296646061	0.05229999999999993	-0.02360000000000002	1.0
836.9001845945232	0.055099999999999934	-0.025600000000000022	1.0
836.9001845945232	0.0506666666666666	-0.02666666666666669	1.0
837.1022455362182	0.05323333333333327	-0.02586666666666669	1.0
837.102181817944	0.053966666666666614	-0.024800000000000023	1.0
837.4113665342129	0.053199999999999935	-0.02626666666666669	1.0
837.7284072764671	0.053199999999999935	-0.028800000000000027	1.0
837.7284072764671	0.05769999999999994	-0.026933333333333358	1.0
837.7811111973926	0.056266666666666604	-0.026933333333333358	1.0
838.1458798902632	0.054199999999999936	-0.025733333333333355	1.0
838.2866188742657	0.05309999999999994	-0.024666666666666687	1.0
838.5671096692898	0.054733333333333266	-0.028266666666666693	1.0
838.5671096692898	0.05399999999999994	-0.026933333333333358	1.0
838.5666522046732	0.050766666666666606	-0.02520000000000002	1.0
839.086341675668	0.0511666666666666	-0.027066666666666694	1.0
838.9786713717153	0.05646666666666661	-0.027333333333333355	1.0
839.5035972073694	0.0527666666666666	-0.026400000000000024	1.0
839.5035972073694	0.051266666666666606	-0.026533333333333357	1.0
839.3975790469008	0.05503333333333328	-0.028266666666666693	1.0
839.5073391658657	0.05503333333333328	-0.026533333333333357	1.0
840.1300522568403	0.05529999999999994	-0.026933333333333358	1.0
840.2979982991184	0.057833333333333264	-0.026933333333333358	1.0
840.2979982991184	0.05413333333333327	-0.027333333333333355	1.0
840.3458064648631	0.053633333333333276	-0.02853333333333336	1.0
840.3458064648631	0.0560666666666666	-0.02786666666666669	1.0
840.8647617484041	0.05323333333333327	-0.026933333333333358	1.0
840.9682726828518	0.055066666666666604	-0.027066666666666694	1.0
840.9682726828518	0.05683333333333328	-0.030266666666666695	1.0
841.287540147698	0.05499999999999994	-0.028400000000000022	1.0
841.287540147698	0.05426666666666661	-0.029200000000000028	1.0
841.3881969191729	0.053199999999999935	-0.024533333333333355	1.0
841.6089564488102	0.053199999999999935	-0.02586666666666669	1.0
841.7079038681678	0.05346666666666661	-0.02853333333333336	1.0
841.7079038681678	0.05403333333333327	-0.02853333333333336	1.0
842.1248490471603	0.05153333333333327	-0.024800000000000023	1.0
842.5500268029676	0.05413333333333327	-0.02786666666666669	1.0
842.8621130760725	0.04999999999999994	-0.02586666666666669	1.0
842.86261428574	0.0546666666666666	-0.027733333333333356	1.0
842.86261428574	0.054366666666666605	-0.02680000000000002	1.0
842.9693160945227	0.05349999999999994	-0.027333333333333355	1.0
843.4973963575936	0.05456666666666661	-0.026000000000000023	1.0
843.4942878900258	0.05289999999999995	-0.026400000000000024	1.0
844.2413552961041	0.05209999999999994	-0.027333333333333355	1.0
844.2413552961041	0.05209999999999994	-0.025600000000000022	1.0
844.4489206505011	0.05419999999999994	-0.02360000000000002	1.0
844.5574885243254	0.05093333333333327	-0.02360000000000002	1.0
844.5602223521805	0.05233333333333327	-0.024533333333333355	1.0
844.7678091229116	0.054333333333333275	-0.025600000000000022	1.0
844.7678091229116	0.05233333333333327	-0.026000000000000023	1.0
844.7692776387863	0.05456666666666661	-0.024800000000000023	1.0
844.7692989801633	0.0522666666666666	-0.026000000000000023	1.0
843.0722765873796	0.05456666666666661	-0.02626666666666669	1.0
842.7562362812861	0.05263333333333327	-0.02386666666666669	1.0
842.3330943914708	0.05503333333333328	-0.024666666666666687	1.0
842.1263416611316	0.052699999999999934	-0.022133333333333352	1.0
842.1263416611316	0.055566666666666605	-0.02680000000000002	1.0
841.7797549437506	0.05133333333333327	-0.024666666666666687	1.0
841.6052513464043	0.05213333333333326	-0.023733333333333353	1.0
841.5971890477724	0.052999999999999936	-0.02506666666666669	1.0
841.5975795415009	0.0530666666666666	-0.022666666666666686	1.0
841.5975795415009	0.0530666666666666	-0.022266666666666688	1.0
841.2888004183244	0.04983333333333326	-0.02680000000000002	1.0
840.9688331256491	0.05739999999999995	-0.02680000000000002	1.0
840.9725179072577	0.0540666666666666	-0.024666666666666687	1.0
840.8620524015578	0.05439999999999994	-0.024933333333333356	1.0
840.8620524015578	0.051266666666666606	-0.02400000000000002	1.0
840.5536242933515	0.05339999999999994	-0.024933333333333356	1.0
840.5503662555084	0.05256666666666661	-0.024800000000000023	1.0
840.3466693347236	0.04986666666666661	-0.02360000000000002	1.0
839.8202159915323	0.054533333333333274	-0.02506666666666669	1.0
839.8202159915323	0.05429999999999994	-0.02426666666666669	1.0
839.5062441967708	0.04993333333333327	-0.025333333333333357	1.0
839.2903605932438	0.04993333333333327	-0.028666666666666694	1.0
839.0826938608018	0.055833333333333277	-0.027333333333333355	1.0
839.08361504065	0.05523333333333327	-0.027333333333333355	1.0
839.08361504065	0.05383333333333327	-0.02626666666666669	1.0
838.9798130502106	0.05543333333333327	-0.028800000000000027	1.0
838.6696023121558	0.05459999999999994	-0.028266666666666693	1.0
838.2486292878517	0.05259999999999993	-0.02680000000000002	1.0
838.1457606754841	0.053199999999999935	-0.02426666666666669	1.0
837.832701727857	0.05243333333333327	-0.024666666666666687	1.0
837.832701727857	0.054899999999999935	-0.025333333333333357	1.0
837.7273652309905	0.0511666666666666	-0.02426666666666669	1.0
837.7273652309905	0.051799999999999936	-0.024666666666666687	1.0
837.4125383289538	0.053199999999999935	-0.024933333333333356	1.0
837.1035676657374	0.053199999999999935	-0.027200000000000023	1.0
837.1035676657374	0.05653333333333326	-0.027200000000000023	1.0
837.0038300480713	0.052366666666666596	-0.024800000000000023	1.0
836.7946916929529	0.05696666666666661	-0.02506666666666669	1.0
836.7988979173613	0.05423333333333327	-0.026133333333333356	1.0
836.3764543368532	0.052966666666666606	-0.02626666666666669	1.0
836.3764543368532	0.0532666666666666	-0.023733333333333353	1.0
836.1101262394518	0.054799999999999946	-0.02666666666666669	1.0
836.070850047878	0.048266666666666604	-0.02173333333333335	1.0
835.7508646821175	0.05123333333333327	-0.021200000000000017	1.0
835.7505446069384	0.05589999999999994	-0.02506666666666669	1.0
835.7505446069384	0.05529999999999994	-0.02506666666666669	1.0
835.6527864513571	0.05529999999999994	-0.022933333333333354	1.0
835.2303924947313	0.05289999999999993	-0.022933333333333354	1.0
835.2333759261636	0.056266666666666604	0.002533333333333336	1.0
835.2338400823866	0.061466666666666614	0.04200000000000004	1.0
835.2338400823866	0.06333333333333327	0.0745333333333334	1.0
834.9279667333446	0.07336666666666661	0.1721333333333335	1.0
834.7143228530274	0.08696666666666662	0.3322666666666669	1.0
834.7143228530274	0.11193333333333327	1.0146666666666666	1.0
833.9930728222342	0.10666666666666663	1.0794666666666666	1.0
833.9930728222342	0.1054333333333333	1.2453333333333334	1.0
833.9930700207675	0.0998333333333333	1.275866666666667	1.0
833.9312421471669	0.10136666666666663	1.2612	1.0
833.375536993935	0.10136666666666663	1.5056	1.0
833.375536993935	0.08979999999999996	1.5606666666666669	1.0
833.2716517879873	0.09059999999999996	1.5606666666666669	1.0
833.2716517879873	0.0947333333333333	1.5589333333333335	1.0
832.961704255376	0.08523333333333329	1.4467999999999999	1.0
832.956266596909	0.08636666666666663	1.3754666666666668	1.0
832.6532439985738	0.08949999999999995	1.395066666666667	1.0
832.5516787610329	0.08303333333333329	1.4647999999999999	1.0
832.5516787610329	0.08246666666666662	1.48	1.0
832.1381080866387	0.08589999999999996	1.488533333333333	1.0
832.2368626605139	0.08166666666666662	1.4370666666666667	1.0
831.7308030203683	0.08089999999999996	1.394666666666667	1.0
831.7250189696306	0.08089999999999996	1.4067999999999998	1.0
831.7250189696306	0.08199999999999996	1.4842666666666666	1.0
831.5252758475478	0.08116666666666662	1.4842666666666666	1.0
831.2206928902967	0.08496666666666662	1.5312000000000001	1.0
831.1179916397566	0.08056666666666662	1.5790666666666668	1.0
831.1179916397566	0.0817333333333333	1.4897333333333331	1.0
831.1179916397566	0.08229999999999996	1.4598666666666666	1.0
830.499418523445	0.08046666666666662	1.4742666666666666	1.0
830.1951543857755	0.08186666666666663	1.4822666666666664	1.0
829.982445649399	0.08313333333333328	1.4818666666666664	1.0
829.4786006373963	0.07443333333333328	1.43	1.0
829.4786006373963	0.07509999999999996	1.4405333333333332	1.0
829.5779762138652	0.07509999999999996	1.3897333333333335	1.0
829.4749515597385	0.08209999999999996	1.4261333333333335	1.0
829.3774488517593	0.0816333333333333	1.4528	1.0
829.3773131353596	0.08259999999999995	1.4528	1.0
828.8591426932514	0.08276666666666661	1.4251999999999998	1.0
828.8591426932514	0.08166666666666662	1.3764000000000003	1.0
828.859225469359	0.08309999999999995	1.48	1.0
828.6570742259273	0.07929999999999995	1.3978666666666668	1.0
828.254443717538	0.07599999999999994	1.3869333333333336	1.0
828.2499032351657	0.0840333333333333	1.4693333333333332	1.0
828.2499032351657	0.07796666666666661	1.4870666666666668	1.0
828.0404994564587	0.08499999999999995	1.48	1.0
827.3347873264113	0.0804333333333333	1.48	1.0
827.0335784851982	0.07916666666666662	1.362266666666667	1.0
827.0335784851982	0.07916666666666662	1.3668000000000002	1.0
827.0335784851982	0.07619999999999995	1.3668000000000002	1.0
826.7873492031673	0.07699999999999996	1.380266666666667	1.0
826.7873492031673	0.07669999999999996	1.332266666666667	1.0
826.1190792599947	0.08176666666666663	1.3758666666666668	1.0
825.8111871079731	0.08473333333333329	1.5046666666666666	1.0
825.8111871079731	0.08306666666666662	1.4548	1.0
825.7108616934437	0.08206666666666662	1.321866666666667	1.0
825.7145212614488	0.08313333333333328	1.3936000000000002	1.0
825.4072602071268	0.08296666666666662	1.4684	1.0
825.4072602071268	0.08463333333333328	1.4498666666666666	1.0
825.4072602071268	0.08463333333333328	1.4794666666666665	1.0
825.4072602071268	0.08509999999999995	1.4193333333333331	1.0
825.3074141239372	0.08189999999999996	1.4193333333333331	1.0
825.3074141239372	0.08249999999999995	1.3385333333333336	1.0
824.3061396663448	0.08296666666666662	1.426	1.0
824.3061396663448	0.08476666666666663	1.324	1.0
824.3016583600422	0.08399999999999996	1.3200000000000003	1.0
824.3016583600422	0.08666666666666661	1.3737333333333333	1.0
824.0931569508843	0.08813333333333327	1.4001333333333332	1.0
823.4989672494087	0.0855333333333333	1.3988	1.0
823.4989672494087	0.08399999999999996	1.393066666666667	1.0
823.5026433244702	0.08646666666666662	1.48	1.0
823.4966778112765	0.08913333333333329	1.48	1.0
822.6950277121521	0.08913333333333329	1.4784	1.0
822.4886890733748	0.08536666666666662	1.4784	1.0
822.4886890733748	0.09176666666666662	1.3737333333333335	1.0
822.1902506056218	0.08543333333333329	1.2929333333333335	1.0
822.1902506056218	0.08786666666666663	1.3157333333333336	1.0
821.8908373527115	0.09039999999999995	1.3561333333333336	1.0
821.8912871894709	0.08589999999999995	1.3748000000000002	1.0
821.8912871894709	0.08936666666666662	1.4116	1.0
821.8912871894709	0.08826666666666663	1.48	1.0
821.8899339099803	0.0880333333333333	1.4775999999999998	1.0
821.5863046592493	0.09009999999999996	1.4785333333333333	1.0
821.5813478117477	0.08359999999999995	1.48	1.0
821.0870030448294	0.08359999999999995	1.4596	1.0
821.0870030448294	0.08556666666666662	1.4596	1.0
820.8886237579828	0.08486666666666662	1.4205333333333332	1.0
820.6866225337177	0.08829999999999995	1.3989333333333334	1.0
820.5933411530888	0.08909999999999996	1.322266666666667	1.0
820.5912880372246	0.09013333333333329	1.3692000000000002	1.0
820.5912880372246	0.08516666666666663	1.4089333333333336	1.0
819.7925313062311	0.08866666666666663	1.3630666666666669	1.0
819.7908325612578	0.09316666666666662	1.3952	1.0
819.3931546228798	0.09629999999999996	1.3768000000000002	1.0
818.597762443289	0.09846666666666663	1.3476000000000001	1.0
818.597762443289	0.09503333333333329	1.3932000000000002	1.0
818.5943950140402	0.09503333333333329	1.3204000000000005	1.0
818.5943950140402	0.09403333333333329	1.2872000000000003	1.0
818.5943950140402	0.08769999999999996	1.2872000000000003	1.0
818.2920082810398	0.08823333333333329	1.3121333333333336	1.0
818.2920082810398	0.08769999999999996	1.239466666666667	1.0
818.291632487688	0.08559999999999995	1.2345333333333335	1.0
818.2908680723143	0.09219999999999996	1.2494666666666667	1.0
817.7962646609872	0.08893333333333328	1.2953333333333337	1.0
817.5008276424638	0.08706666666666663	1.2048000000000003	1.0
817.5008276424638	0.08866666666666663	1.253466666666667	1.0
817.3072695275162	0.09279999999999997	1.319066666666667	1.0
816.9092412860585	0.09406666666666663	1.3201333333333336	1.0
816.815297589769	0.09206666666666662	1.3684000000000003	1.0
816.2139157923988	0.09206666666666662	1.3729333333333336	1.0
816.2139157923988	0.09176666666666662	1.1609333333333336	1.0
816.1173832354335	0.08519999999999996	1.1609333333333336	1.0
815.3198153057859	0.09576666666666664	1.281866666666667	1.0
815.3219942409941	0.09303333333333329	1.3897333333333335	1.0
815.1279999701954	0.09716666666666662	1.3889333333333336	1.0
815.1279999701954	0.09593333333333329	1.3174666666666668	1.0
815.1279999701954	0.09006666666666663	1.2188000000000003	1.0
814.7385027631888	0.09906666666666662	1.3734666666666668	1.0
814.7379920458297	0.10166666666666661	1.4742666666666666	1.0
814.7404748680616	0.10003333333333331	1.4666666666666666	1.0
814.7404748680616	0.09903333333333329	1.4525333333333332	1.0
814.7374199861149	0.09903333333333329	1.4482666666666666	1.0
814.736984848509	0.09999999999999995	1.4004	1.0
814.736984848509	0.09709999999999996	1.4004	1.0
814.045743442153	0.0950333333333333	1.2724000000000002	1.0
813.0701294929044	0.09273333333333329	1.2405333333333337	1.0
813.0701294929044	0.09443333333333329	1.322	1.0
813.1621955807766	0.09999999999999996	1.4143999999999999	1.0
813.1611548022466	0.09876666666666663	1.4017333333333333	1.0
812.8616968899097	0.09356666666666662	1.3952000000000002	1.0
812.6757622160075	0.09646666666666663	1.3938666666666668	1.0
812.6757622160075	0.09579999999999995	1.3873333333333335	1.0
811.7584318267044	0.09946666666666663	1.317466666666667	1.0
811.5008912085392	0.09946666666666663	1.2016000000000002	1.0
811.4976101910084	0.1018333333333333	1.1601333333333335	1.0
811.4976101910084	0.08946666666666662	1.1601333333333335	1.0
811.4976101910084	0.08886666666666664	1.1814666666666669	1.0
811.4068361014271	0.10393333333333328	1.3244000000000002	1.0
811.4080237311476	0.10283333333333329	1.3360000000000003	1.0
811.3129686463826	0.09816666666666662	1.3408000000000004	1.0
811.1064933583535	0.10136666666666663	1.4210666666666667	1.0
811.1064933583535	0.10759999999999996	1.48	1.0
811.1110045593255	0.10096666666666662	1.48	1.0
810.8094988184433	0.1044333333333333	1.3883999999999999	1.0
810.6242825030646	0.10396666666666664	1.3249333333333333	1.0
810.23545838304	0.10136666666666663	1.3133333333333337	1.0
810.23545838304	0.10136666666666663	1.1992000000000003	1.0
809.9396031070925	0.09466666666666662	1.2464000000000002	1.0
809.4524674480901	0.10256666666666663	1.2464000000000002	1.0
809.452416431994	0.09359999999999996	1.2436	1.0
809.452416431994	0.09573333333333328	1.2152000000000003	1.0
809.452416431994	0.09559999999999995	1.2337333333333336	1.0
809.1650234266945	0.09646666666666662	1.2749333333333335	1.0
808.1951545217498	0.09769999999999995	1.3128000000000002	1.0
808.1987755894883	0.09776666666666663	1.2706666666666668	1.0
808.0102114670625	0.09793333333333329	1.2344000000000002	1.0
808.0102114670625	0.10073333333333329	1.2921333333333336	1.0
808.0090259757216	0.09806666666666662	1.3273333333333337	1.0
807.8097148287502	0.09806666666666662	1.3036	1.0
807.8097148287502	0.09703333333333329	1.311066666666667	1.0
807.8096528545909	0.09559999999999995	1.311066666666667	1.0
807.8096528545909	0.10326666666666663	1.3337333333333337	1.0
807.8097475339129	0.10039999999999996	1.342266666666667	1.0
807.421963871715	0.09929999999999996	1.3201333333333336	1.0
807.3774767745806	0.09753333333333329	1.1964000000000004	1.0
807.0317681688759	0.09079999999999996	1.1872000000000003	1.0
807.0317681688759	0.09906666666666662	1.3081333333333336	1.0
807.0341941899612	0.09296666666666663	1.2164000000000001	1.0
806.0743267521843	0.09353333333333329	1.217466666666667	1.0
806.0752386308372	0.09399999999999996	1.2344000000000002	1.0
806.0752386308372	0.09399999999999996	1.2225333333333337	1.0
806.0752386308372	0.09379999999999995	1.2206666666666668	1.0
806.07530104657	0.0962333333333333	1.2206666666666668	1.0
805.8742498359208	0.09399999999999996	1.2168000000000003	1.0
804.8228414287594	0.09436666666666663	1.1948	1.0
804.7210759115931	0.09586666666666663	1.2001333333333335	1.0
804.7210759115931	0.0977333333333333	1.2624000000000002	1.0
804.6283084543751	0.09663333333333328	1.2281333333333335	1.0
804.4381076778958	0.08989999999999997	1.1598666666666668	1.0
804.4345449956235	0.09476666666666662	1.1621333333333335	1.0
804.4380889591519	0.09643333333333329	1.16	1.0
804.4380889591519	0.09746666666666663	1.1597333333333335	1.0
804.3554177453888	0.09416666666666663	1.16	1.0
804.1530495096365	0.09416666666666663	1.1606666666666667	1.0
804.0550137026808	0.09516666666666662	1.1738666666666668	1.0
803.487860555952	0.09649999999999996	1.1738666666666668	1.0
803.487860555952	0.09893333333333329	1.277466666666667	1.0
803.379464474207	0.09719999999999997	1.2188000000000003	1.0
802.7181583198261	0.09109999999999996	1.1760000000000002	1.0
802.7224297332402	0.09996666666666662	1.3137333333333336	1.0
802.7209009766548	0.10179999999999996	1.3200000000000003	1.0
802.7209009766548	0.09779999999999997	1.3196000000000003	1.0
802.7209009766548	0.10016666666666664	1.2873333333333334	1.0
801.3897301054926	0.09416666666666662	1.1649333333333334	1.0
801.3756950582763	0.09376666666666662	1.1722666666666668	1.0
801.3852225714448	0.09376666666666662	1.1728	1.0
801.3852225714448	0.0904333333333333	1.2008000000000003	1.0
801.2790777397323	0.09656666666666662	1.2008000000000003	1.0
801.1937487188251	0.09653333333333329	1.305066666666667	1.0
801.0975826988371	0.10056666666666662	1.3026666666666669	1.0
801.0975008072448	0.09389999999999996	1.1290666666666667	1.0
801.0975008072448	0.08856666666666663	1.08	1.0
801.0981110021252	0.09143333333333328	1.0800000000000003	1.0
800.9061456246749	0.08919999999999996	1.1205333333333334	1.0
800.8087698443738	0.08979999999999996	1.1598666666666668	1.0
800.3080753023205	0.09143333333333328	1.1621333333333335	1.0
800.3374803342207	0.09339999999999997	1.1669333333333334	1.0
800.3374803342207	0.09266666666666663	1.1284	1.0
