wavelength(nm)	flourescence PMT(V)	ti_saph Power (V)	Gain (V)
800.521592312396	0.09309999999999995	1.241466666666667	1.0
800.521592312396	0.10036666666666663	1.2081333333333335	1.0
800.5217318024997	0.09696666666666663	1.2166666666666666	1.0
800.5217318024997	0.09696666666666663	1.1832	1.0
801.0959513160275	0.09006666666666663	1.1174666666666666	1.0
800.9040857189837	0.09306666666666663	1.1174666666666666	1.0
801.0957433736621	0.09109999999999994	1.0926666666666667	1.0
801.1009744477496	0.08499999999999995	1.0893333333333333	1.0
801.1009744477496	0.0923333333333333	1.0821333333333334	1.0
801.192833511013	0.09776666666666663	1.2180000000000002	1.0
801.2846075499724	0.0993333333333333	1.2644000000000002	1.0
801.32903911915	0.09509999999999996	1.2986666666666666	1.0
801.3864423382292	0.09706666666666662	1.1601333333333337	1.0
801.3864423382292	0.09216666666666663	1.1602666666666668	1.0
801.3919535242363	0.09366666666666663	1.16	1.0
802.7177142789072	0.09366666666666663	1.1809333333333336	1.0
802.7218064394	0.09593333333333329	1.319066666666667	1.0
802.7218440807073	0.09976666666666663	1.319066666666667	1.0
802.7218440807073	0.09393333333333329	1.250666666666667	1.0
803.4835970195203	0.09613333333333329	1.185466666666667	1.0
803.9635809661189	0.09826666666666663	1.2092	1.0
803.9671089600531	0.10143333333333329	1.3408000000000004	1.0
804.0596477506568	0.09999999999999995	1.2732	1.0
804.0596477506568	0.09373333333333331	1.2021333333333337	1.0
804.3400522707477	0.09466666666666664	1.1748000000000003	1.0
804.3004846629759	0.09646666666666662	1.1612	1.0
804.3474101384664	0.09636666666666661	1.16	1.0
804.4355382804195	0.09049999999999996	1.1600000000000001	1.0
804.4355382804195	0.09049999999999996	1.1529333333333336	1.0
804.6244041922839	0.09363333333333329	1.1529333333333336	1.0
804.6284548292211	0.0955333333333333	1.1586666666666667	1.0
804.6284548292211	0.09573333333333328	1.1884000000000003	1.0
804.8249554052038	0.10133333333333329	1.2822666666666669	1.0
804.8249554052038	0.09186666666666662	1.2472000000000003	1.0
805.7865920243795	0.09829999999999996	1.3024	1.0
805.9782855194943	0.0966333333333333	1.3128000000000004	1.0
805.9831920032899	0.10186666666666663	1.3206666666666669	1.0
806.0738034808238	0.10473333333333329	1.3181333333333336	1.0
806.0738034808238	0.1000333333333333	1.341066666666667	1.0
801.3698298770408	0.09546666666666662	1.2210666666666667	1.0
806.9436693373691	0.09546666666666662	1.227466666666667	1.0
807.0337553919929	0.09693333333333329	1.227466666666667	1.0
807.4217512938836	0.0973333333333333	1.2544000000000002	1.0
807.4217512938836	0.09739999999999996	1.16	1.0
807.4227568774329	0.09496666666666663	1.1620000000000001	1.0
807.4227568774329	0.09729999999999997	1.1625333333333332	1.0
807.7163476135081	0.09593333333333329	1.1622666666666668	1.0
807.8068718645735	0.0968333333333333	1.2544000000000002	1.0
807.8068718645735	0.1005333333333333	1.3185333333333336	1.0
808.0100315126815	0.10283333333333329	1.2526666666666668	1.0
808.0067377094662	0.10049999999999995	1.3192000000000004	1.0
808.0064386331854	0.10073333333333329	1.323866666666667	1.0
808.0064386331854	0.10073333333333329	1.3236000000000003	1.0
808.0064386331854	0.10506666666666663	1.3236000000000003	1.0
808.1978269030734	0.09709999999999995	1.2298666666666669	1.0
808.2881446345905	0.09443333333333329	1.2021333333333335	1.0
809.4530726791236	0.09536666666666661	1.2636	1.0
809.4605989222608	0.1015333333333333	1.296666666666667	1.0
809.4605989222608	0.09589999999999996	1.289866666666667	1.0
809.4557945805354	0.09619999999999995	1.2557333333333334	1.0
809.5506657079537	0.0957333333333333	1.2509333333333337	1.0
809.7474868807658	0.09606666666666662	1.192666666666667	1.0
809.8452110037257	0.09166666666666662	1.2388000000000003	1.0
809.8452110037257	0.09793333333333329	1.2876000000000003	1.0
810.2362586393673	0.09793333333333329	1.2729333333333337	1.0
810.6242710311644	0.09429999999999995	1.3870666666666667	1.0
810.9235643493325	0.09776666666666663	1.3870666666666667	1.0
810.9182122214497	0.10359999999999997	1.3540000000000003	1.0
810.9182122214497	0.09853333333333329	1.3302666666666667	1.0
811.1084004143318	0.10436666666666662	1.4652	1.0
811.3145542994764	0.10413333333333329	1.4775999999999998	1.0
811.4040967843737	0.10159999999999997	1.3997333333333335	1.0
811.4052761548818	0.10649999999999996	1.4013333333333333	1.0
811.4052761548818	0.10286666666666663	1.3998666666666668	1.0
811.4062689305504	0.1031333333333333	1.3658666666666668	1.0
811.5043900028256	0.09529999999999997	1.2116000000000002	1.0
811.4992320548563	0.09529999999999997	1.161066666666667	1.0
811.9870772331705	0.09566666666666662	1.16	1.0
811.9870772331705	0.09206666666666662	1.16	1.0
811.7980698474414	0.09649999999999996	1.1964000000000004	1.0
812.6760973381832	0.10189999999999995	1.2536	1.0
812.8632868434864	0.10206666666666663	1.4054666666666666	1.0
812.8632302725787	0.10489999999999995	1.3654666666666668	1.0
812.8632302725787	0.09869999999999995	1.3153333333333337	1.0
813.0770357776098	0.10329999999999998	1.3417333333333337	1.0
811.9575206260306	0.10096666666666662	1.319466666666667	1.0
811.9575206260306	0.09259999999999996	1.3200000000000003	1.0
814.0475788764586	0.09513333333333328	1.315866666666667	1.0
814.0475788764586	0.09513333333333328	1.3109333333333337	1.0
814.0475788764586	0.09866666666666662	1.369866666666667	1.0
814.7396434680923	0.09729999999999996	1.369866666666667	1.0
814.7377467261076	0.09933333333333329	1.3994666666666669	1.0
814.7396493258541	0.09866666666666662	1.4511999999999998	1.0
814.7396493258541	0.10619999999999995	1.4715999999999996	1.0
814.7395872330347	0.10123333333333329	1.4745333333333333	1.0
814.7406897769007	0.1039333333333333	1.4626666666666666	1.0
815.3247185657291	0.09606666666666662	1.3505333333333336	1.0
815.3259508761917	0.09779999999999997	1.3185333333333336	1.0
815.3259508761917	0.09929999999999996	1.378666666666667	1.0
815.3205764602994	0.09226666666666662	1.3853333333333333	1.0
815.3205969159458	0.09226666666666662	1.3790666666666669	1.0
816.2104351013894	0.09546666666666663	1.239866666666667	1.0
816.8106439289008	0.0929333333333333	1.239866666666667	1.0
816.8106439289008	0.08939999999999995	1.204266666666667	1.0
816.8116141440457	0.09466666666666662	1.3656000000000001	1.0
817.3083274837735	0.09549999999999995	1.3372000000000002	1.0
817.5004303747409	0.09029999999999996	1.320666666666667	1.0
817.399193855565	0.09696666666666662	1.3217333333333336	1.0
817.399193855565	0.09539999999999996	1.313866666666667	1.0
817.802351283556	0.09299999999999996	1.242	1.0
817.802351283556	0.09806666666666662	1.3632000000000002	1.0
818.1915509087283	0.09536666666666663	1.3677333333333335	1.0
818.1948636179375	0.0918333333333333	1.3165333333333336	1.0
818.1948636179375	0.0918333333333333	1.2341333333333335	1.0
818.4994830143949	0.09309999999999996	1.2654666666666667	1.0
818.5919978043979	0.08923333333333329	1.2654666666666667	1.0
818.5934064278343	0.08829999999999996	1.2868000000000002	1.0
818.592971482522	0.09326666666666664	1.239866666666667	1.0
818.592971482522	0.08463333333333328	1.2393333333333336	1.0
819.3903786628354	0.09309999999999995	1.2441333333333335	1.0
819.6909363639843	0.09069999999999996	1.320266666666667	1.0
819.7928570259419	0.09779999999999997	1.3916000000000002	1.0
819.8843369063229	0.08949999999999995	1.3933333333333333	1.0
819.8843369063229	0.09026666666666662	1.4253333333333333	1.0
820.58895947343	0.09193333333333328	1.4649333333333334	1.0
820.5901672122224	0.09193333333333328	1.4032000000000002	1.0
820.781924065053	0.08789999999999995	1.4192	1.0
820.9953771940696	0.08886666666666662	1.4192	1.0
820.9953771940696	0.09299999999999994	1.48	1.0
821.0847749838796	0.09059999999999996	1.4781333333333333	1.0
821.3916974341143	0.08923333333333329	1.4002666666666665	1.0
821.79458621126	0.08703333333333328	1.4042666666666666	1.0
821.79458621126	0.09256666666666663	1.48	1.0
821.79458621126	0.08976666666666662	1.4758666666666667	1.0
821.8918208017002	0.09096666666666661	1.4474666666666667	1.0
821.8881091916187	0.09363333333333329	1.4293333333333331	1.0
821.8908085757879	0.08829999999999996	1.371066666666667	1.0
822.2948974913423	0.08829999999999996	1.3204000000000002	1.0
822.2948974913423	0.08966666666666663	1.298266666666667	1.0
822.2926051383482	0.08449999999999996	1.298266666666667	1.0
822.6960758923708	0.08946666666666662	1.3224000000000002	1.0
823.4972239916195	0.08733333333333329	1.4236000000000002	1.0
823.4980024180278	0.09106666666666662	1.48	1.0
823.4980024180278	0.0894333333333333	1.4648	1.0
823.4980024180278	0.08526666666666663	1.4201333333333335	1.0
823.9085749471658	0.0885333333333333	1.4573333333333334	1.0
824.3071578851722	0.08623333333333329	1.380666666666667	1.0
824.4017955322786	0.0811333333333333	1.3734666666666668	1.0
824.3543204487213	0.0833333333333333	1.3504000000000003	1.0
824.3543204487213	0.0833333333333333	1.3602666666666667	1.0
824.8090490672183	0.08983333333333329	1.478	1.0
824.7539450456105	0.08419999999999996	1.478	1.0
825.2119418540592	0.08596666666666662	1.4590666666666665	1.0
825.2119418540592	0.0822333333333333	1.3352000000000002	1.0
825.2119418540592	0.07669999999999995	1.4053333333333333	1.0
825.4086835540301	0.08346666666666662	1.4759999999999998	1.0
825.6169424570337	0.08473333333333329	1.4362666666666666	1.0
825.6170152732085	0.08436666666666663	1.48	1.0
825.7145176519659	0.08156666666666662	1.4076	1.0
825.7145176519659	0.08636666666666662	1.3605333333333336	1.0
825.7155537879001	0.07846666666666662	1.3192000000000004	1.0
826.430161686966	0.08116666666666662	1.3922666666666668	1.0
826.8299947923471	0.08116666666666662	1.4785333333333333	1.0
826.8356237217405	0.08239999999999995	1.3732000000000002	1.0
826.8356237217405	0.08016666666666662	1.3732000000000002	1.0
827.029810318093	0.08109999999999996	1.4224	1.0
827.029810318093	0.08459999999999997	1.4746666666666666	1.0
827.3412435369777	0.08463333333333328	1.3880000000000001	1.0
827.7438570475285	0.07909999999999995	1.3560000000000003	1.0
827.7438570475285	0.08386666666666662	1.48	1.0
828.0445885015705	0.08146666666666662	1.486933333333333	1.0
828.0580173703302	0.08466666666666661	1.4988	1.0
828.6633540147228	0.08486666666666662	1.5	1.0
828.6590737140399	0.08373333333333328	1.4865333333333333	1.0
828.6590737140399	0.08373333333333328	1.4150666666666667	1.0
828.7599021952209	0.07689999999999995	1.3983999999999999	1.0
828.8586875873649	0.08649999999999997	1.3983999999999999	1.0
829.2740467229144	0.07626666666666662	1.48	1.0
829.2647959615073	0.08246666666666662	1.4245333333333334	1.0
829.2647959615073	0.08106666666666662	1.4768	1.0
829.2647959615073	0.08293333333333329	1.4801333333333333	1.0
829.377951702477	0.07966666666666662	1.44	1.0
829.88675417077	0.07749999999999996	1.3986666666666667	1.0
830.0900555173289	0.08099999999999995	1.4797333333333331	1.0
830.0900555173289	0.08006666666666662	1.4302666666666668	1.0
830.4992481412411	0.08729999999999996	1.5084000000000002	1.0
830.3971555498554	0.09003333333333328	1.5442666666666667	1.0
831.0083078607241	0.09003333333333328	1.48	1.0
831.0083078607241	0.08429999999999996	1.48	1.0
831.0083078607241	0.08679999999999996	1.5604000000000002	1.0
831.2170251313479	0.08616666666666663	1.6326666666666665	1.0
831.4858976330545	0.08029999999999995	1.639333333333333	1.0
831.528032793105	0.08499999999999995	1.5886666666666664	1.0
831.7315227648182	0.08186666666666663	1.4964	1.0
831.7315227648182	0.08486666666666662	1.4834666666666665	1.0
832.1386323379844	0.08396666666666662	1.4782666666666666	1.0
832.1386323379844	0.09069999999999996	1.4708	1.0
832.5504954837273	0.08449999999999996	1.5378666666666667	1.0
833.0095908095716	0.08633333333333329	1.48	1.0
833.0095908095716	0.08633333333333329	1.3938666666666666	1.0
832.9650716220251	0.08683333333333329	1.3938666666666666	1.0
832.9612197267932	0.09009999999999996	1.398	1.0
833.3777482961882	0.08606666666666662	1.3994666666666669	1.0
833.3787091220169	0.09363333333333329	1.4485333333333332	1.0
833.3787091220169	0.09939999999999995	1.5333333333333334	1.0
833.8871816642502	0.09956666666666662	1.5436	1.0
833.8910367743306	0.10156666666666662	1.3310666666666668	1.0
833.9882224466684	0.09793333333333329	1.3005333333333335	1.0
833.9940450937344	0.1060333333333333	1.2584000000000004	1.0
833.9940450937344	0.10926666666666662	1.1138666666666668	1.0
834.513090281825	0.09056666666666663	0.5030666666666668	1.0
834.7181458230027	0.09056666666666663	0.26640000000000025	1.0
835.0328245304192	0.07803333333333329	0.26640000000000025	1.0
834.9844002966547	0.06736666666666662	0.1208000000000001	1.0
834.9844002966547	0.061466666666666614	0.06026666666666672	1.0
835.348001757952	0.06689999999999996	0.04800000000000004	1.0
835.7557697388295	0.06169999999999995	-0.014933333333333347	1.0
835.751666415852	0.0514666666666666	-0.02626666666666669	1.0
835.7494441543995	0.05339999999999994	-0.027066666666666694	1.0
835.7494441543995	0.04939999999999994	-0.024666666666666687	1.0
836.2757319575719	0.04949999999999993	-0.02546666666666669	1.0
836.6765781855114	0.051833333333333266	-0.02200000000000002	1.0
836.6963985390906	0.052699999999999934	-0.026400000000000024	1.0
836.9010217269849	0.052699999999999934	-0.025600000000000022	1.0
836.9016693391894	0.053899999999999934	-0.026133333333333356	1.0
836.9016693391894	0.05239999999999994	-0.026133333333333356	1.0
837.1017967246994	0.05586666666666661	-0.02746666666666669	1.0
837.317269383304	0.0536666666666666	-0.027200000000000023	1.0
837.4121145555129	0.05519999999999994	-0.02680000000000002	1.0
837.7245958068862	0.05809999999999995	-0.028933333333333356	1.0
837.7245958068862	0.0517666666666666	-0.025600000000000022	1.0
837.7328280756896	0.05349999999999994	-0.02973333333333336	1.0
838.1490117138324	0.05466666666666661	-0.027733333333333356	1.0
838.566427623205	0.052866666666666604	-0.027333333333333355	1.0
838.9861295598307	0.05323333333333328	-0.027066666666666694	1.0
838.9861295598307	0.05323333333333328	-0.02946666666666669	1.0
839.0783784778762	0.058366666666666615	-0.02946666666666669	1.0
838.9794896734129	0.052366666666666596	-0.024133333333333354	1.0
839.3008659710908	0.0508666666666666	-0.026533333333333357	1.0
839.5018276709765	0.05399999999999994	-0.02680000000000002	1.0
839.5018276709765	0.053933333333333264	-0.028666666666666694	1.0
839.9228520968547	0.05579999999999993	-0.027733333333333356	1.0
839.9228520968547	0.058466666666666604	-0.02813333333333336	1.0
840.4507970267399	0.057133333333333265	-0.02853333333333336	1.0
840.5457008528429	0.05359999999999993	-0.027333333333333355	1.0
840.5457008528429	0.05349999999999994	-0.026133333333333356	1.0
840.8702960832456	0.05349999999999994	-0.02386666666666669	1.0
840.8610117690808	0.0501666666666666	-0.02586666666666669	1.0
840.874171840852	0.05499999999999994	-0.02586666666666669	1.0
841.0172161355525	0.05226666666666661	-0.02666666666666669	1.0
841.0172161355525	0.05073333333333327	-0.023066666666666687	1.0
841.0172161355525	0.052199999999999934	-0.026533333333333357	1.0
841.0172161355525	0.05253333333333327	-0.02586666666666669	1.0
841.4981552286611	0.056099999999999935	-0.02786666666666669	1.0
841.6078063884354	0.05129999999999994	-0.027600000000000027	1.0
841.6078063884354	0.055066666666666604	-0.02933333333333336	1.0
842.030102666776	0.04969999999999994	-0.024400000000000022	1.0
842.3316186996163	0.054799999999999946	-0.028400000000000022	1.0
843.3474240041055	0.054799999999999946	-0.025733333333333355	1.0
842.7635298389941	0.05069999999999993	-0.02946666666666669	1.0
842.7635298389941	0.05409999999999994	-0.02946666666666669	1.0
842.9754922056775	0.05126666666666661	-0.027333333333333355	1.0
843.0754884730185	0.05263333333333327	-0.025333333333333357	1.0
843.5029062864979	0.0540666666666666	-0.02680000000000002	1.0
843.5029449724482	0.05209999999999993	-0.02786666666666669	1.0
843.5029449724482	0.0520666666666666	-0.025733333333333355	1.0
843.7106244016195	0.053799999999999945	-0.027333333333333355	1.0
844.2384522789802	0.05259999999999994	-0.029200000000000028	1.0
844.2402291578256	0.0524666666666666	-0.026533333333333357	1.0
844.6671489650782	0.051966666666666606	-0.023466666666666688	1.0
844.6671489650782	0.051966666666666606	-0.024533333333333355	1.0
844.7716505485892	0.0505666666666666	-0.027200000000000023	1.0
844.8725662632701	0.05703333333333328	-0.027200000000000023	1.0
844.7742275020715	0.053899999999999934	-0.02853333333333336	1.0
844.8733547901776	0.05636666666666659	-0.02813333333333336	1.0
844.8733547901776	0.05533333333333327	-0.029066666666666692	1.0
840.8709919750264	0.05413333333333327	-0.027333333333333355	1.0
840.870363184233	0.05413333333333327	-0.02506666666666669	1.0
840.5468023298519	0.0518666666666666	-0.025733333333333355	1.0
840.5496894333371	0.05303333333333327	-0.025733333333333355	1.0
840.5496894333371	0.05336666666666661	-0.02626666666666669	1.0
840.3470650993049	0.050466666666666604	-0.02426666666666669	1.0
839.9268061222269	0.052533333333333265	-0.027733333333333356	1.0
839.3942866855476	0.0498666666666666	-0.027066666666666694	1.0
839.3983155677894	0.0546666666666666	-0.027200000000000023	1.0
839.3983155677894	0.05586666666666661	-0.02626666666666669	1.0
839.2515275743515	0.051466666666666605	-0.023733333333333353	1.0
839.2956651367056	0.05393333333333327	-0.029066666666666692	1.0
838.9852901197288	0.05516666666666661	-0.02786666666666669	1.0
838.9852901197288	0.05516666666666661	-0.025733333333333355	1.0
838.9852901197288	0.05233333333333327	-0.024133333333333354	1.0
838.6708777501694	0.050933333333333275	-0.024133333333333354	1.0
838.1507073066566	0.055566666666666605	-0.02666666666666669	1.0
838.1493421065954	0.05486666666666661	-0.02680000000000002	1.0
837.7298114053781	0.057699999999999946	-0.02853333333333336	1.0
837.7298114053781	0.05379999999999993	-0.02666666666666669	1.0
837.6269354319269	0.05699999999999993	-0.02973333333333336	1.0
837.4218859747559	0.052166666666666604	-0.026000000000000023	1.0
837.1059244167395	0.05439999999999994	-0.02626666666666669	1.0
836.8999073853066	0.053633333333333276	-0.024666666666666687	1.0
836.8999073853066	0.053633333333333276	-0.024533333333333355	1.0
836.7910917642065	0.050766666666666606	-0.02746666666666669	1.0
836.6929786036702	0.056233333333333274	-0.02746666666666669	1.0
836.5807004673329	0.05173333333333327	-0.025333333333333357	1.0
836.3768243599885	0.05429999999999994	-0.025600000000000022	1.0
836.3768243599885	0.05476666666666661	-0.02626666666666669	1.0
836.3756588449977	0.05226666666666661	-0.025333333333333357	1.0
836.0679687336107	0.05319999999999994	-0.026533333333333357	1.0
836.063803717683	0.05253333333333328	-0.024400000000000022	1.0
835.6448490929092	0.052466666666666606	-0.02400000000000002	1.0
835.6448490929092	0.05589999999999994	-0.026533333333333357	1.0
835.6447571378791	0.05159999999999994	-0.02173333333333335	1.0
835.3469862650952	0.05159999999999994	-0.013466666666666679	1.0
835.034668786637	0.05659999999999994	0.013066666666666678	1.0
835.0358429097519	0.06106666666666662	0.013066666666666678	1.0
835.0358429097519	0.06883333333333329	0.06026666666666672	1.0
834.7146789169864	0.07409999999999996	0.15720000000000012	1.0
834.7148939063104	0.08509999999999995	0.3641333333333335	1.0
834.2027159524957	0.09866666666666662	0.6333333333333333	1.0
833.8970388330134	0.10943333333333329	1.1089333333333333	1.0
833.8970388330134	0.11356666666666662	1.2788000000000002	1.0
833.8935808694831	0.10429999999999996	1.315866666666667	1.0
833.3730230301903	0.10309999999999996	1.3510666666666669	1.0
833.3730230301903	0.09536666666666663	1.5584000000000002	1.0
833.3767113507254	0.09769999999999995	1.6183999999999996	1.0
833.3767113507254	0.09769999999999995	1.623733333333333	1.0
832.9609429225801	0.09959999999999997	1.623733333333333	1.0
832.9675206773436	0.08849999999999995	1.4735999999999998	1.0
832.9675206773436	0.0884333333333333	1.3996	1.0
834.0800308368995	0.0874333333333333	1.386666666666667	1.0
834.0800308368995	0.08389999999999996	1.3562666666666667	1.0
832.6573307194113	0.08376666666666663	1.4367999999999999	1.0
832.6573307194113	0.0849333333333333	1.48	1.0
832.1396405399983	0.08273333333333328	1.4808000000000001	1.0
832.1385767990263	0.08296666666666662	1.4758666666666667	1.0
832.1385767990263	0.07903333333333327	1.4112	1.0
831.7280824681729	0.08023333333333328	1.496	1.0
831.5252486427855	0.08023333333333328	1.5492000000000001	1.0
831.526278343811	0.07966666666666661	1.5492000000000001	1.0
831.1143419035991	0.08216666666666661	1.5725333333333333	1.0
831.1143419035991	0.08313333333333328	1.5146666666666666	1.0
830.5007181018859	0.08149999999999996	1.4777333333333331	1.0
830.3959981572913	0.07866666666666662	1.4992	1.0
829.9817771807885	0.08146666666666662	1.5596000000000003	1.0
829.9832730581172	0.07943333333333329	1.4676	1.0
829.9832730581172	0.08136666666666661	1.4401333333333333	1.0
829.8829639119797	0.08143333333333329	1.478	1.0
829.8829639119797	0.08106666666666662	1.4342666666666666	1.0
829.3777545513083	0.08056666666666662	1.4733333333333332	1.0
829.3778379793315	0.08056666666666662	1.4889333333333332	1.0
829.3778379793315	0.08256666666666664	1.4825333333333333	1.0
829.2687323923201	0.07993333333333329	1.4825333333333333	1.0
828.6658206923039	0.08336666666666663	1.4733333333333332	1.0
828.6611767312143	0.07969999999999995	1.4173333333333333	1.0
828.5622507862951	0.07943333333333329	1.4112	1.0
828.0435242345712	0.08153333333333329	1.4762666666666666	1.0
828.0435242345712	0.08206666666666662	1.5226666666666666	1.0
828.0557253851447	0.08256666666666664	1.4877333333333331	1.0
827.800344883794	0.08239999999999995	1.4814666666666665	1.0
827.334755064415	0.08079999999999996	1.4868	1.0
827.0323149283435	0.08443333333333329	1.3754666666666668	1.0
827.0323149283435	0.08443333333333329	1.3993333333333333	1.0
827.0323149283435	0.07899999999999996	1.4786666666666666	1.0
826.5280377224302	0.08266666666666662	1.4786666666666666	1.0
826.1200465321014	0.07936666666666663	1.4212	1.0
825.7151918803723	0.08499999999999995	1.4146666666666667	1.0
825.7151918803723	0.08256666666666664	1.4844	1.0
825.6181494075901	0.07886666666666663	1.3448000000000002	1.0
825.7155220310821	0.08393333333333329	1.3670666666666667	1.0
825.6170483906758	0.08636666666666662	1.3694666666666668	1.0
825.3111935706771	0.08399999999999996	1.4761333333333333	1.0
825.3111935706771	0.07906666666666662	1.48	1.0
825.310472710734	0.08333333333333329	1.4582666666666668	1.0
824.4394905976956	0.08333333333333329	1.4067999999999998	1.0
824.8089242471646	0.08639999999999996	1.4714666666666665	1.0
824.4036954456556	0.08166666666666662	1.4714666666666665	1.0
824.4036954456556	0.08113333333333328	1.4796	1.0
824.3053750362608	0.08519999999999996	1.342666666666667	1.0
824.3065159529352	0.0841333333333333	1.3649333333333336	1.0
824.3076231546321	0.08539999999999996	1.4138666666666666	1.0
824.0004494595516	0.08226666666666661	1.396666666666667	1.0
824.0004494595516	0.08893333333333328	1.3978666666666668	1.0
823.900064568189	0.0894333333333333	1.3986666666666667	1.0
823.4971724668443	0.08726666666666662	1.4797333333333331	1.0
823.501532284711	0.08516666666666663	1.48	1.0
822.6932025736205	0.08516666666666663	1.48	1.0
822.6932025736205	0.09019999999999996	1.3681333333333334	1.0
822.1977514561742	0.08916666666666663	1.3681333333333334	1.0
822.1977514561742	0.08849999999999997	1.321866666666667	1.0
822.1940181530698	0.08379999999999996	1.3198666666666667	1.0
821.8875433329615	0.08579999999999996	1.3893333333333335	1.0
821.8875433329615	0.08776666666666663	1.4785333333333333	1.0
821.8907777085967	0.09036666666666662	1.478133333333333	1.0
821.7923179553917	0.08833333333333329	1.4673333333333332	1.0
821.4838570073881	0.09083333333333328	1.4794666666666665	1.0
821.2942600477301	0.08933333333333329	1.4582666666666666	1.0
821.2942600477301	0.09039999999999995	1.4685333333333332	1.0
820.9907945853727	0.08659999999999997	1.3962666666666665	1.0
820.781724259371	0.08659999999999997	1.3990666666666667	1.0
820.5868786681486	0.08866666666666663	1.3990666666666667	1.0
820.5382728339177	0.0879333333333333	1.3328000000000002	1.0
820.5382728339177	0.09143333333333328	1.4225333333333332	1.0
819.7890277779067	0.08933333333333328	1.4749333333333332	1.0
819.7890395968716	0.08633333333333328	1.3972	1.0
819.7892847101278	0.09286666666666661	1.3992	1.0
818.5943960331398	0.08869999999999995	1.3877333333333335	1.0
818.5943960331398	0.09299999999999994	1.4082666666666668	1.0
818.5948783563615	0.09299999999999994	1.343866666666667	1.0
818.5929977203709	0.10039999999999996	1.315866666666667	1.0
818.5929977203709	0.08753333333333328	1.2966666666666669	1.0
818.2909328107573	0.08753333333333328	1.317466666666667	1.0
818.2909328107573	0.09316666666666662	1.317466666666667	1.0
818.2423018849084	0.09333333333333328	1.2400000000000002	1.0
818.2423018849084	0.09073333333333329	1.3214666666666668	1.0
817.7970892749674	0.09659999999999996	1.3804000000000003	1.0
817.4898326155447	0.09286666666666661	1.3014666666666668	1.0
817.4898326155447	0.09073333333333328	1.2353333333333336	1.0
817.4913595496304	0.09296666666666663	1.2684000000000002	1.0
817.4913595496304	0.09429999999999995	1.2568000000000004	1.0
816.9060653750779	0.10016666666666663	1.3200000000000003	1.0
816.9079553882738	0.09633333333333328	1.3918666666666668	1.0
816.9079553882738	0.09633333333333328	1.3982666666666668	1.0
816.2204437306268	0.0932333333333333	1.234666666666667	1.0
816.208019424276	0.09503333333333329	1.234666666666667	1.0
815.3268414049263	0.09076666666666662	1.3060000000000003	1.0
815.3225652451083	0.0952333333333333	1.3998666666666668	1.0
815.3225652451083	0.09609999999999995	1.3967999999999998	1.0
815.3215621774144	0.0971333333333333	1.303466666666667	1.0
814.741890953171	0.0957333333333333	1.266266666666667	1.0
814.739224897922	0.09786666666666662	1.4366666666666668	1.0
814.7399459675365	0.09739999999999996	1.4758666666666667	1.0
814.7399459675365	0.10126666666666663	1.4765333333333333	1.0
814.7380830134884	0.10149999999999997	1.4697333333333331	1.0
814.0487427880912	0.09926666666666663	1.3965333333333334	1.0
814.0487427880912	0.09926666666666663	1.2802666666666669	1.0
814.0487427880912	0.0994333333333333	1.2802666666666669	1.0
814.0487427880912	0.09296666666666663	1.2513333333333336	1.0
813.1651942353961	0.09403333333333329	1.2908	1.0
813.0708622379586	0.09503333333333328	1.3908	1.0
813.0708389111088	0.10496666666666661	1.3745333333333336	1.0
812.8683118169406	0.09503333333333328	1.3205333333333336	1.0
812.8683118169406	0.09829999999999996	1.367466666666667	1.0
811.9914896910509	0.10226666666666663	1.3889333333333336	1.0
811.7959732127734	0.09556666666666662	1.3884	1.0
811.5022762237086	0.10056666666666662	1.271866666666667	1.0
811.5000585769958	0.09213333333333329	1.1600000000000001	1.0
811.5000585769958	0.09213333333333329	1.1709333333333334	1.0
811.5001953035479	0.09226666666666664	1.2909333333333337	1.0
811.407349422886	0.09946666666666663	1.2909333333333337	1.0
811.4062774041234	0.10096666666666662	1.3488000000000004	1.0
811.1103417080093	0.09949999999999996	1.3773333333333335	1.0
811.1103417080093	0.10313333333333329	1.3921333333333334	1.0
811.1103417080093	0.10053333333333328	1.4122666666666668	1.0
810.9192541247166	0.09769999999999995	1.353866666666667	1.0
810.6214481055698	0.09783333333333329	1.2301333333333335	1.0
810.6276992703009	0.09803333333333329	1.304266666666667	1.0
810.6276992703009	0.10229999999999997	1.3429333333333338	1.0
810.236180388604	0.10023333333333329	1.2168000000000003	1.0
809.7495588090295	0.10023333333333329	1.3204000000000005	1.0
809.8474464910082	0.09939999999999995	1.2648000000000001	1.0
809.4556462320056	0.09866666666666661	1.2648000000000001	1.0
809.4556462320056	0.09429999999999995	1.2268000000000003	1.0
809.3649417172792	0.0962333333333333	1.2441333333333335	1.0
808.2869316610285	0.09729999999999996	1.2781333333333336	1.0
808.2871838115775	0.10053333333333328	1.308266666666667	1.0
808.1019050115367	0.09709999999999996	1.3136000000000003	1.0
808.1019050115367	0.0943333333333333	1.2829333333333335	1.0
808.1011691173028	0.09639999999999994	1.3126666666666669	1.0
808.0108443242564	0.09893333333333329	1.2448000000000001	1.0
807.9061017057662	0.10073333333333329	1.245066666666667	1.0
807.8078620609525	0.10073333333333329	1.3025333333333338	1.0
807.8078620609525	0.09809999999999997	1.3200000000000003	1.0
807.716207395405	0.10093333333333329	1.3200000000000003	1.0
807.716207395405	0.10156666666666662	1.319066666666667	1.0
807.4215040196283	0.1005333333333333	1.2556000000000003	1.0
807.427594630774	0.09529999999999997	1.1742666666666668	1.0
807.427594630774	0.09526666666666664	1.1629333333333336	1.0
806.8458879725197	0.1011333333333333	1.353866666666667	1.0
806.8459864041093	0.10013333333333328	1.2948000000000002	1.0
806.0743941114797	0.09746666666666663	1.244666666666667	1.0
805.9812251669607	0.09286666666666661	1.2457333333333334	1.0
805.9812251669607	0.09533333333333328	1.2705333333333335	1.0
806.0729980901239	0.09533333333333328	1.315066666666667	1.0
805.7792590283183	0.1016333333333333	1.314266666666667	1.0
804.8276771167891	0.10139999999999996	1.314266666666667	1.0
804.7754068000146	0.09569999999999995	1.225466666666667	1.0
804.7754068000146	0.10303333333333331	1.2548000000000001	1.0
804.6235515501941	0.09766666666666662	1.2253333333333336	1.0
804.4382154121798	0.09269999999999996	1.16	1.0
804.4399431854639	0.09759999999999995	1.16	1.0
804.3473229204584	0.09936666666666663	1.16	1.0
804.3473229204584	0.09229999999999995	1.158266666666667	1.0
804.252937000073	0.09376666666666662	1.1593333333333335	1.0
804.1583492480462	0.0949333333333333	1.1605333333333334	1.0
804.0581490679153	0.09949999999999996	1.1902666666666668	1.0
803.9643183904642	0.09949999999999996	1.2826666666666668	1.0
803.9643183904642	0.10489999999999995	1.3046666666666669	1.0
803.2937133440417	0.09856666666666662	1.3046666666666669	1.0
802.8130766807923	0.1007333333333333	1.2565333333333337	1.0
802.7202332337628	0.09679999999999996	1.16	1.0
802.7204758025917	0.09549999999999996	1.1632	1.0
802.7204758025917	0.09866666666666662	1.2610666666666668	1.0
802.7204758025917	0.09949999999999996	1.2121333333333335	1.0
801.3829363621454	0.09223333333333329	1.157066666666667	1.0
801.3870132668657	0.09436666666666663	1.1624	1.0
801.284033523396	0.09896666666666662	1.1720000000000004	1.0
801.284033523396	0.09316666666666663	1.2092000000000003	1.0
801.2840362802194	0.09316666666666663	1.270266666666667	1.0
801.1000486984531	0.09696666666666663	1.2820000000000003	1.0
801.1000123186702	0.09513333333333328	1.2820000000000003	1.0
801.1000468206306	0.09793333333333329	1.1960000000000002	1.0
801.1000468206306	0.09249999999999997	1.1565333333333334	1.0
801.096725007224	0.08766666666666662	1.0961333333333334	1.0
800.8114423214812	0.09326666666666662	1.1492000000000004	1.0
800.8146709058409	0.09533333333333328	1.16	1.0
800.8121968916095	0.09523333333333328	1.1561333333333335	1.0
800.8121968916095	0.0919333333333333	1.1589333333333336	1.0
800.4335435576494	0.09526666666666664	1.1869333333333334	1.0
800.3395314382851	0.09753333333333329	1.1533333333333335	1.0
