wavelength(nm)	flourescence PMT(V)	ti_saph Power (V)	Gain (V)
800.5217958410449	0.09639999999999996	1.2173333333333334	1.0
800.5217958410449	0.09656666666666662	1.1828	1.0
800.8110340228017	0.09866666666666662	1.1665333333333334	1.0
800.8110340228017	0.0942333333333333	1.1598666666666668	1.0
801.0976540153404	0.08993333333333328	1.0809333333333335	1.0
801.1863731903985	0.08899999999999997	1.0801333333333334	1.0
801.1897778686744	0.0969333333333333	1.152666666666667	1.0
801.1883282670303	0.09616666666666662	1.2342666666666668	1.0
801.1883282670303	0.09896666666666662	1.3193333333333335	1.0
801.3809189237589	0.09896666666666662	1.2309333333333337	1.0
801.3872263508854	0.09643333333333329	1.1593333333333333	1.0
801.3872263508854	0.09266666666666662	1.1593333333333333	1.0
801.9410339063904	0.09209999999999996	1.1602666666666668	1.0
801.9410339063904	0.09159999999999996	1.1597333333333335	1.0
802.7196291440845	0.09406666666666662	1.2464000000000002	1.0
802.7188709744995	0.09886666666666662	1.3200000000000003	1.0
803.1946288008894	0.0964333333333333	1.2116000000000005	1.0
803.6710026866732	0.09379999999999995	1.2250666666666667	1.0
803.6710026866732	0.09609999999999996	1.2361333333333335	1.0
803.9636685436478	0.09579999999999995	1.2776000000000003	1.0
804.1514219424644	0.10019999999999996	1.2029333333333336	1.0
804.3417644734867	0.10019999999999996	1.1732	1.0
804.2433379866309	0.09203333333333329	1.1861333333333335	1.0
804.2433379866309	0.09833333333333329	1.1861333333333335	1.0
804.2433379866309	0.09446666666666663	1.16	1.0
804.4381491843201	0.09583333333333328	1.1534666666666666	1.0
804.6260887278027	0.09069999999999996	1.1484	1.0
804.6267856177659	0.0913333333333333	1.1453333333333333	1.0
804.6273641659069	0.09416666666666662	1.1596	1.0
804.6273641659069	0.09439999999999996	1.1604	1.0
804.8259651258584	0.09766666666666664	1.2060000000000002	1.0
805.8725943442695	0.09263333333333329	1.255866666666667	1.0
806.0750856340603	0.09586666666666661	1.2089333333333336	1.0
806.0750856340603	0.09853333333333329	1.1957333333333335	1.0
806.0750856340603	0.09853333333333329	1.3173333333333337	1.0
806.209838900651	0.10009999999999995	1.3096000000000003	1.0
806.648219657954	0.10029999999999996	1.3096000000000003	1.0
806.9370685861408	0.10083333333333329	1.2686666666666668	1.0
807.0337551277643	0.09536666666666664	1.1606666666666667	1.0
807.0337551277643	0.09646666666666663	1.1817333333333335	1.0
807.5176798435854	0.09776666666666661	1.2094666666666667	1.0
807.5176798435854	0.09073333333333328	1.1601333333333337	1.0
807.7102033181777	0.09676666666666663	1.1614666666666669	1.0
807.809840830175	0.10179999999999995	1.2724000000000002	1.0
807.809840830175	0.09963333333333328	1.3230666666666668	1.0
807.8087402351468	0.1008333333333333	1.332	1.0
807.9069404117204	0.1008333333333333	1.314266666666667	1.0
807.8095341143206	0.0986333333333333	1.3094666666666668	1.0
807.9084184689855	0.09779999999999997	1.3094666666666668	1.0
807.9084184689855	0.09939999999999995	1.2901333333333336	1.0
808.1045056144246	0.0954333333333333	1.2408000000000001	1.0
808.1044780588244	0.09936666666666663	1.3116000000000003	1.0
808.1944439344779	0.09526666666666662	1.2457333333333334	1.0
808.2879029279383	0.09313333333333329	1.2384000000000004	1.0
808.2879029279383	0.09639999999999996	1.1678666666666668	1.0
809.4526191467145	0.09909999999999997	1.2864000000000002	1.0
809.3631396655359	0.10119999999999996	1.3105333333333335	1.0
809.3643393587474	0.10156666666666662	1.266666666666667	1.0
809.5490904581804	0.10156666666666662	1.2417333333333336	1.0
809.5490904581804	0.0982333333333333	1.2197333333333333	1.0
809.8458376169563	0.0962333333333333	1.2197333333333333	1.0
810.2362001633218	0.10116666666666663	1.3184000000000002	1.0
810.6277387478847	0.09273333333333329	1.1808	1.0
810.6265798901584	0.09983333333333329	1.305866666666667	1.0
810.6265798901584	0.1058333333333333	1.4161333333333335	1.0
811.1086754273792	0.10169999999999997	1.3880000000000001	1.0
811.1086754273792	0.10349999999999997	1.4797333333333331	1.0
811.1065549628248	0.10283333333333329	1.4802666666666666	1.0
811.4056776715695	0.10549999999999995	1.48	1.0
811.4056776715695	0.10423333333333329	1.4221333333333332	1.0
811.4081214468264	0.10423333333333329	1.393866666666667	1.0
811.4082710343442	0.1010333333333333	1.3802666666666668	1.0
811.4082661340499	0.10219999999999996	1.3802666666666668	1.0
811.4082430171659	0.10359999999999996	1.3213333333333337	1.0
811.4082430171659	0.09373333333333331	1.2496000000000003	1.0
811.5025931115159	0.09469999999999996	1.1744	1.0
811.801002340256	0.09616666666666662	1.1601333333333335	1.0
811.799809133621	0.09129999999999995	1.1604	1.0
812.8628060723474	0.09929999999999996	1.3213333333333337	1.0
812.8628060723474	0.09563333333333329	1.3860000000000001	1.0
813.1612746882189	0.09439999999999997	1.3397333333333337	1.0
813.1644802002211	0.10069999999999996	1.3441333333333338	1.0
813.1666032505768	0.10069999999999996	1.4024	1.0
813.1666032505768	0.10066666666666663	1.4012	1.0
813.1666032505768	0.09996666666666662	1.4012	1.0
814.0438511294275	0.10019999999999996	1.2870666666666668	1.0
814.0438511294275	0.09456666666666663	1.2457333333333334	1.0
814.7392404839238	0.09476666666666662	1.2932000000000003	1.0
814.7402637279804	0.10016666666666664	1.3968	1.0
814.7402637279804	0.10119999999999996	1.4049333333333334	1.0
814.74039611485	0.10183333333333328	1.4466666666666665	1.0
814.7412831312287	0.09719999999999997	1.4354666666666667	1.0
814.7412831312287	0.10013333333333328	1.4451999999999998	1.0
814.738130289975	0.09306666666666663	1.4032000000000002	1.0
814.738130289975	0.09306666666666663	1.2400000000000004	1.0
815.1339139263274	0.09083333333333328	1.2012000000000003	1.0
815.3211504963543	0.09136666666666664	1.2012000000000003	1.0
815.3225003273656	0.09889999999999996	1.3389333333333335	1.0
816.2149883490137	0.09746666666666663	1.365466666666667	1.0
816.2149883490137	0.0938333333333333	1.3010666666666668	1.0
816.2065157035611	0.08499999999999995	1.1605333333333334	1.0
816.8107522066073	0.08989999999999997	1.1601333333333337	1.0
816.9041730081346	0.09783333333333329	1.3821333333333337	1.0
817.396930092761	0.09509999999999996	1.3201333333333336	1.0
817.396930092761	0.08836666666666662	1.3369333333333335	1.0
817.396930092761	0.08906666666666661	1.2417333333333336	1.0
817.7949049677603	0.08906666666666661	1.2216	1.0
817.7991818372004	0.08926666666666662	1.2204	1.0
818.1918710919093	0.09009999999999996	1.2204	1.0
818.1918710919093	0.09533333333333328	1.3616000000000001	1.0
818.2891178794837	0.08889999999999997	1.3241333333333336	1.0
818.2924542150715	0.0881333333333333	1.2377333333333336	1.0
818.4959069855973	0.09076666666666662	1.2400000000000002	1.0
818.4990774888116	0.09169999999999995	1.3028000000000004	1.0
818.5935425296515	0.09036666666666662	1.2420000000000002	1.0
818.5935425296515	0.09129999999999995	1.239866666666667	1.0
818.5935986682779	0.09006666666666663	1.2828000000000004	1.0
818.5935986682779	0.09343333333333328	1.3408000000000004	1.0
819.7885990565529	0.09046666666666663	1.3734666666666668	1.0
819.7891848325092	0.09046666666666663	1.3772000000000002	1.0
819.7891848325092	0.08983333333333328	1.3772000000000002	1.0
820.4960172847015	0.09306666666666663	1.342266666666667	1.0
820.4950807857289	0.09246666666666663	1.4022666666666668	1.0
820.4950807857289	0.09519999999999995	1.3840000000000001	1.0
821.0854443414503	0.0962333333333333	1.322266666666667	1.0
821.0854443414503	0.08893333333333328	1.3257333333333337	1.0
821.0854453950991	0.09219999999999996	1.4743999999999997	1.0
821.0854429382618	0.08649999999999997	1.47	1.0
821.7905406330523	0.08536666666666662	1.4490666666666665	1.0
821.7926136053601	0.08769999999999996	1.4796	1.0
821.7926136053601	0.08999999999999996	1.48	1.0
821.7926136053601	0.08999999999999996	1.4289333333333332	1.0
821.886356529421	0.08923333333333329	1.4188	1.0
821.8891023316147	0.08846666666666661	1.4188	1.0
822.191324912989	0.08769999999999996	1.347066666666667	1.0
822.191324912989	0.08753333333333328	1.3200000000000003	1.0
822.2955493317068	0.07916666666666662	1.319866666666667	1.0
822.2955493317068	0.09146666666666661	1.319866666666667	1.0
822.6925160126274	0.08813333333333329	1.3448000000000002	1.0
823.4990887318643	0.09069999999999996	1.436	1.0
823.4990887318643	0.08909999999999996	1.4796	1.0
823.4990704286433	0.08909999999999997	1.4736	1.0
823.9034297490441	0.08619999999999996	1.4166666666666667	1.0
823.8987379421159	0.08619999999999996	1.4676	1.0
824.3052734964529	0.08669999999999996	1.4068	1.0
824.3052734964529	0.08899999999999997	1.4068	1.0
824.304740807433	0.08509999999999995	1.3757333333333337	1.0
824.4010520574677	0.08443333333333328	1.345866666666667	1.0
824.8079341198475	0.08729999999999996	1.3273333333333335	1.0
824.7091907607439	0.0861333333333333	1.4292	1.0
824.7091907607439	0.08569999999999996	1.4755999999999998	1.0
825.3095279787252	0.08089999999999996	1.3838666666666668	1.0
825.3097106072327	0.0865333333333333	1.4904	1.0
825.3097106072327	0.08599999999999994	1.4868	1.0
825.6177972766912	0.08239999999999996	1.4917333333333334	1.0
825.6119524264744	0.08239999999999996	1.4173333333333331	1.0
825.6119524264744	0.08729999999999996	1.3949333333333334	1.0
825.7147052383453	0.08689999999999995	1.3949333333333334	1.0
825.7156136201422	0.08373333333333328	1.319866666666667	1.0
825.7156136201422	0.0816333333333333	1.315866666666667	1.0
826.4276457122294	0.08263333333333328	1.474	1.0
826.4276457122294	0.08293333333333329	1.5002666666666669	1.0
827.0303681833224	0.08706666666666663	1.3774666666666668	1.0
827.0303416068806	0.07979999999999994	1.3744	1.0
827.0290383668239	0.07796666666666661	1.3777333333333335	1.0
827.0290383668239	0.07543333333333328	1.3938666666666668	1.0
827.0290383668239	0.08119999999999995	1.3297333333333337	1.0
827.745445057045	0.08373333333333327	1.4792	1.0
827.7411256503597	0.08373333333333327	1.4801333333333333	1.0
828.0433644950622	0.08429999999999994	1.4830666666666665	1.0
828.6646187410479	0.08906666666666661	1.4830666666666665	1.0
828.6646187410479	0.08376666666666663	1.4910666666666665	1.0
828.6605010242181	0.07836666666666661	1.391066666666667	1.0
828.6602529879812	0.08609999999999995	1.3280000000000003	1.0
828.8583824821009	0.08196666666666663	1.3801333333333337	1.0
829.2742298992607	0.08066666666666662	1.4262666666666666	1.0
829.2742298992607	0.07896666666666662	1.3812000000000004	1.0
829.2735957533769	0.0813666666666666	1.4510666666666667	1.0
829.4787628655546	0.08216666666666661	1.4744	1.0
829.4798482782248	0.08249999999999995	1.4398666666666669	1.0
829.4800365042245	0.08249999999999995	1.397066666666667	1.0
829.4800365042245	0.0800666666666666	1.4812	1.0
829.8903555210665	0.07813333333333328	1.4812	1.0
830.1902915990138	0.08176666666666661	1.4797333333333331	1.0
830.3949379231606	0.08389999999999996	1.4892	1.0
830.396766388496	0.08329999999999994	1.5842666666666665	1.0
830.396766388496	0.08393333333333329	1.4804	1.0
831.1088095712176	0.07899999999999995	1.372266666666667	1.0
831.1133296655854	0.07849999999999996	1.358266666666667	1.0
831.5270733606245	0.07836666666666663	1.4496	1.0
831.5276963988357	0.08586666666666662	1.5501333333333336	1.0
831.5269555812611	0.08016666666666664	1.5041333333333333	1.0
831.5269555812611	0.08016666666666664	1.4804	1.0
831.5269555812611	0.08113333333333328	1.4040000000000001	1.0
832.1368573340823	0.07966666666666661	1.4040000000000001	1.0
832.1367510073279	0.09179999999999996	1.4634666666666665	1.0
832.5498171670428	0.08016666666666662	1.4578666666666664	1.0
832.5498171670428	0.08446666666666663	1.4904	1.0
832.650290991043	0.0848333333333333	1.4822666666666664	1.0
832.968772734303	0.08389999999999996	1.4016	1.0
833.3769524673952	0.08133333333333329	1.3898666666666668	1.0
833.3767912113578	0.08619999999999996	1.3906666666666667	1.0
833.3767912113578	0.09496666666666663	1.4788	1.0
833.3720673516139	0.09749999999999995	1.496	1.0
833.3748551734103	0.09256666666666663	1.5005333333333335	1.0
833.8869249847482	0.09256666666666663	1.3510666666666669	1.0
833.9921567598075	0.09956666666666664	1.2681333333333336	1.0
833.9921567598075	0.10876666666666662	1.2681333333333336	1.0
834.3076974761525	0.10403333333333328	1.2225333333333335	1.0
834.2993861826903	0.10996666666666664	1.0521333333333334	1.0
834.7214773966645	0.09306666666666663	0.5376000000000002	1.0
835.0319289813345	0.08166666666666662	0.3300000000000002	1.0
835.0319289813345	0.06603333333333326	0.060000000000000046	1.0
835.0345516032511	0.06513333333333328	0.04840000000000005	1.0
835.0296986099218	0.059099999999999944	0.02360000000000002	1.0
835.4378552439599	0.05463333333333326	-0.01706666666666668	1.0
835.750485472465	0.05269999999999994	-0.021066666666666685	1.0
836.3749000406967	0.05269999999999994	-0.023733333333333353	1.0
836.3749000406967	0.049966666666666604	-0.024533333333333355	1.0
836.2760472457	0.05266666666666661	-0.024533333333333355	1.0
836.3783257275838	0.05293333333333327	-0.025333333333333357	1.0
836.7918642632161	0.04953333333333327	-0.022533333333333353	1.0
836.994580346243	0.05413333333333327	-0.02506666666666669	1.0
836.994580346243	0.054333333333333275	-0.026400000000000024	1.0
836.9989006616522	0.05283333333333327	-0.022933333333333354	1.0
837.4147488165537	0.05383333333333328	-0.024666666666666687	1.0
837.4103238321829	0.052433333333333276	-0.024933333333333356	1.0
837.7267193892261	0.05379999999999993	-0.028000000000000025	1.0
837.7267193892261	0.0515666666666666	-0.026000000000000023	1.0
837.7266004329238	0.0515666666666666	-0.02666666666666669	1.0
837.7240372674014	0.05183333333333327	-0.02666666666666669	1.0
838.1449628621889	0.050833333333333265	-0.02666666666666669	1.0
838.1442458914559	0.054366666666666605	-0.025733333333333355	1.0
838.1442458914559	0.051999999999999935	-0.026133333333333356	1.0
838.9750263184495	0.05289999999999994	-0.025600000000000022	1.0
839.0826090927553	0.054899999999999935	-0.02360000000000002	1.0
838.9788651752323	0.05566666666666661	-0.02786666666666669	1.0
839.2868937076846	0.0559666666666666	-0.024400000000000022	1.0
839.2868937076846	0.047566666666666604	-0.02360000000000002	1.0
839.5052817859677	0.050533333333333263	-0.025333333333333357	1.0
839.8141356015482	0.053199999999999935	-0.02320000000000002	1.0
840.4458106834209	0.053199999999999935	-0.026133333333333356	1.0
840.4444111881962	0.05613333333333327	-0.024666666666666687	1.0
840.4444111881962	0.0505666666666666	-0.024666666666666687	1.0
840.5481728112525	0.0505666666666666	-0.02386666666666669	1.0
840.658983982962	0.052699999999999934	-0.02546666666666669	1.0
840.8644736956642	0.05513333333333327	-0.024800000000000023	1.0
840.9763270568724	0.05483333333333327	-0.028400000000000022	1.0
840.9763270568724	0.0558666666666666	-0.028933333333333356	1.0
841.2839400085815	0.053633333333333276	-0.02506666666666669	1.0
841.3822072031086	0.05119999999999994	-0.024800000000000023	1.0
841.5065297592781	0.05599999999999993	-0.02666666666666669	1.0
841.557718571895	0.05483333333333327	-0.028000000000000025	1.0
841.557718571895	0.05483333333333327	-0.026400000000000024	1.0
841.7045485236871	0.05303333333333327	-0.02386666666666669	1.0
842.1340219911268	0.05203333333333327	-0.02386666666666669	1.0
842.1330592598877	0.052366666666666596	-0.02680000000000002	1.0
842.866653394201	0.051133333333333274	-0.02546666666666669	1.0
842.866653394201	0.05069999999999994	-0.02360000000000002	1.0
842.8661261252607	0.05259999999999993	-0.024800000000000023	1.0
843.0756968602866	0.05513333333333327	-0.026133333333333356	1.0
843.2882004938148	0.055466666666666595	-0.024133333333333354	1.0
843.4966092342931	0.0536666666666666	-0.02426666666666669	1.0
844.1286935038921	0.049566666666666606	-0.02426666666666669	1.0
844.1286935038921	0.05139999999999993	-0.025733333333333355	1.0
844.45229944304	0.05139999999999993	-0.02666666666666669	1.0
844.4473154193391	0.053199999999999935	-0.026000000000000023	1.0
844.7719964338577	0.053899999999999934	-0.026000000000000023	1.0
844.7656974065544	0.05456666666666661	-0.02426666666666669	1.0
844.7656974065544	0.05039999999999993	-0.022266666666666688	1.0
844.7655532241744	0.05429999999999994	-0.024533333333333355	1.0
844.8717715225187	0.053133333333333276	-0.02426666666666669	1.0
843.0382561123101	0.052199999999999934	-0.02666666666666669	1.0
843.1188594182612	0.05613333333333327	-0.02746666666666669	1.0
842.7552001714249	0.0512666666666666	-0.026400000000000024	1.0
842.7552001714249	0.055466666666666595	-0.02680000000000002	1.0
842.8625098487538	0.05159999999999994	-0.024933333333333356	1.0
842.133744042486	0.055499999999999945	-0.027333333333333355	1.0
841.7049665876425	0.056266666666666604	-0.02853333333333336	1.0
841.601659462607	0.05226666666666661	-0.028266666666666693	1.0
841.6011300225641	0.05466666666666661	-0.027333333333333355	1.0
841.6011300225641	0.05039999999999993	-0.026000000000000023	1.0
841.6011300225641	0.05039999999999993	-0.023733333333333353	1.0
841.2846631870493	0.05283333333333328	-0.027066666666666694	1.0
840.8657557808679	0.05399999999999994	-0.027066666666666694	1.0
840.8649662941651	0.0532666666666666	-0.027733333333333356	1.0
840.8649662941651	0.0520666666666666	-0.025733333333333355	1.0
840.6579085457739	0.05886666666666661	-0.028666666666666694	1.0
840.4462943077027	0.0546666666666666	-0.026400000000000024	1.0
840.3435826229925	0.05343333333333326	-0.02626666666666669	1.0
840.0717736279126	0.0539666666666666	-0.026533333333333357	1.0
840.0717736279126	0.0526666666666666	-0.027733333333333356	1.0
839.821447926322	0.05643333333333327	-0.027733333333333356	1.0
839.5096186984698	0.052133333333333275	-0.028266666666666693	1.0
839.4025625923258	0.052133333333333275	-0.02666666666666669	1.0
839.0873526517847	0.050999999999999934	-0.022933333333333354	1.0
839.0873526517847	0.04969999999999993	-0.022933333333333354	1.0
838.9816484226372	0.05163333333333327	-0.02680000000000002	1.0
838.5624603006679	0.05459999999999994	-0.02666666666666669	1.0
838.5624603006679	0.05179999999999993	-0.02680000000000002	1.0
838.1492081138259	0.05346666666666661	-0.02680000000000002	1.0
838.1492081138259	0.05289999999999994	-0.02506666666666669	1.0
837.832082878972	0.05529999999999994	-0.027066666666666694	1.0
837.5223888183275	0.04939999999999993	-0.02400000000000002	1.0
837.5233493421571	0.05443333333333327	-0.024666666666666687	1.0
837.41526713038	0.05209999999999994	-0.026000000000000023	1.0
837.41526713038	0.05209999999999994	-0.027733333333333356	1.0
837.1033320849208	0.05386666666666661	-0.02666666666666669	1.0
837.0988785029941	0.051866666666666596	-0.02666666666666669	1.0
836.995632744672	0.051766666666666614	-0.024133333333333354	1.0
836.7902611213535	0.05303333333333327	-0.02520000000000002	1.0
836.7902611213535	0.05703333333333327	-0.02506666666666669	1.0
836.4963688581827	0.055699999999999944	-0.02786666666666669	1.0
836.3795467502335	0.05239999999999994	-0.026533333333333357	1.0
836.2727200947114	0.05499999999999993	-0.025600000000000022	1.0
836.0633232764137	0.05636666666666661	-0.026000000000000023	1.0
836.0633232764137	0.05476666666666661	-0.02666666666666669	1.0
835.7474536859675	0.05589999999999994	-0.028400000000000022	1.0
835.6493543087898	0.05589999999999994	-0.024800000000000023	1.0
835.2344487913216	0.05173333333333327	-0.014800000000000013	1.0
835.2347952501258	0.05533333333333327	-0.014800000000000013	1.0
835.2347952501258	0.05943333333333327	0.010666666666666677	1.0
834.9227363924145	0.060199999999999934	0.04040000000000004	1.0
835.1906927052682	0.06683333333333327	0.06266666666666673	1.0
834.8199029313608	0.08273333333333328	0.2994666666666669	1.0
834.5102508656347	0.09606666666666663	0.5669333333333334	1.0
834.5102508656347	0.10979999999999994	0.9562666666666666	1.0
834.3003488268113	0.11306666666666662	1.1183999999999998	1.0
833.9905049853854	0.10279999999999995	1.2890666666666668	1.0
833.4205714653752	0.10013333333333328	1.3041333333333336	1.0
833.4205714653752	0.10013333333333328	1.4320000000000002	1.0
833.3720465232708	0.09799999999999996	1.4320000000000002	1.0
833.3720465232708	0.09746666666666663	1.558	1.0
833.3758990714384	0.09636666666666663	1.5604	1.0
832.9642247498297	0.08929999999999995	1.4857333333333331	1.0
832.9642241773687	0.08746666666666662	1.3998666666666668	1.0
832.7963106616563	0.08846666666666662	1.3998666666666668	1.0
832.7963106616563	0.08169999999999994	1.4433333333333334	1.0
832.7963106616563	0.08803333333333328	1.4798666666666667	1.0
832.2359242707065	0.08626666666666663	1.522	1.0
832.1377184577177	0.08463333333333328	1.4450666666666667	1.0
831.9433683055059	0.08559999999999995	1.4137333333333333	1.0
831.9433683055059	0.08559999999999995	1.3961333333333334	1.0
831.7317840268529	0.07883333333333328	1.4474666666666667	1.0
831.5252355431676	0.08083333333333328	1.4474666666666667	1.0
831.2170142849202	0.0840333333333333	1.5413333333333334	1.0
831.2199175141159	0.08153333333333329	1.5790666666666668	1.0
831.2199175141159	0.08526666666666662	1.6028	1.0
831.0952175699877	0.08899999999999997	1.5417333333333334	1.0
830.3978777655147	0.07856666666666662	1.48	1.0
830.3979186152975	0.08126666666666663	1.5264000000000002	1.0
830.3994617205461	0.08886666666666664	1.6342666666666665	1.0
830.3994617205461	0.08019999999999997	1.5010666666666665	1.0
829.985286463605	0.08556666666666662	1.4788	1.0
829.4810685062288	0.07546666666666661	1.4166666666666667	1.0
829.4788424372706	0.07546666666666661	1.342666666666667	1.0
829.263403395842	0.07966666666666662	1.4232	1.0
829.263403395842	0.08023333333333328	1.4232	1.0
829.380711771083	0.08469999999999996	1.4882666666666666	1.0
828.8623611335254	0.08026666666666663	1.4785333333333333	1.0
828.8636074864705	0.07959999999999995	1.4761333333333333	1.0
828.6584899056915	0.07849999999999996	1.48	1.0
828.6626829420447	0.08186666666666663	1.3986666666666667	1.0
828.6626829420447	0.0807333333333333	1.4154666666666667	1.0
828.2479996792281	0.08323333333333328	1.4870666666666668	1.0
828.0385913252338	0.08393333333333329	1.5049333333333335	1.0
827.94593783607	0.08199999999999996	1.4790666666666668	1.0
827.94593783607	0.08199999999999996	1.4346666666666668	1.0
827.94593783607	0.0804333333333333	1.3473333333333335	1.0
827.0315807939264	0.08089999999999996	1.3473333333333335	1.0
827.0302573417359	0.08169999999999997	1.3845333333333334	1.0
827.0302573417359	0.07946666666666662	1.3950666666666667	1.0
826.1188338441293	0.08106666666666662	1.325866666666667	1.0
826.1188338441293	0.08849999999999994	1.3937333333333333	1.0
825.7183204208843	0.08316666666666662	1.4942666666666666	1.0
825.711976021092	0.08386666666666662	1.3773333333333335	1.0
825.7146342698289	0.07926666666666662	1.3205333333333336	1.0
825.6180942607053	0.08103333333333329	1.320666666666667	1.0
825.6180942607053	0.08303333333333329	1.3645333333333334	1.0
825.6180942607053	0.08683333333333329	1.4705333333333332	1.0
825.2138224161885	0.08683333333333329	1.4494666666666667	1.0
825.2118999615298	0.08736666666666662	1.3920000000000001	1.0
824.9042900181439	0.07706666666666662	1.3920000000000001	1.0
824.9042900181439	0.08379999999999996	1.3318666666666668	1.0
824.7125267461153	0.0831333333333333	1.4457333333333333	1.0
824.4055714719698	0.08606666666666662	1.3474666666666668	1.0
824.4055714719698	0.08483333333333329	1.3246666666666669	1.0
824.0007680938617	0.08359999999999995	1.3970666666666667	1.0
824.0007680938617	0.08559999999999995	1.4365333333333334	1.0
824.0008901041251	0.08339999999999996	1.4416	1.0
823.4925467739632	0.08996666666666663	1.4318666666666664	1.0
823.4925718987486	0.08463333333333328	1.48	1.0
823.4925805055358	0.08463333333333328	1.48	1.0
823.4925805055358	0.0907666666666666	1.4666666666666666	1.0
822.6950373156993	0.0886333333333333	1.4666666666666666	1.0
822.2902736908027	0.08919999999999995	1.3401333333333336	1.0
822.1969669718053	0.08656666666666661	1.3197333333333336	1.0
822.1969529868707	0.08306666666666662	1.3202666666666667	1.0
821.8899807563704	0.08826666666666663	1.3430666666666669	1.0
821.8899807563704	0.09089999999999997	1.4054666666666666	1.0
821.8900330022171	0.08589999999999996	1.4796	1.0
821.8914127247604	0.09156666666666662	1.4798666666666667	1.0
821.8924372471128	0.08969999999999996	1.48	1.0
821.5841937943754	0.09349999999999996	1.4411999999999998	1.0
821.5841937943754	0.09566666666666662	1.4744	1.0
820.9924231080427	0.09566666666666662	1.451733333333333	1.0
821.0865607871832	0.09236666666666662	1.4630666666666665	1.0
820.6799390040892	0.09523333333333328	1.4630666666666665	1.0
820.5915411812985	0.08643333333333328	1.3744	1.0
820.5915411812985	0.08883333333333329	1.3558666666666668	1.0
820.4965683305509	0.09079999999999995	1.4013333333333333	1.0
819.7928087340681	0.09173333333333329	1.3777333333333335	1.0
819.7907441506626	0.09013333333333329	1.3152000000000001	1.0
819.3870500386922	0.08979999999999995	1.3258666666666667	1.0
819.3870500386922	0.08946666666666662	1.368666666666667	1.0
818.685681871715	0.09616666666666662	1.3217333333333336	1.0
818.6885313376149	0.09146666666666663	1.3200000000000003	1.0
818.5935636483514	0.09146666666666663	1.2401333333333335	1.0
818.5882824858738	0.09653333333333329	1.2366666666666668	1.0
818.5882824858738	0.09129999999999996	1.2366666666666668	1.0
818.496386917649	0.08763333333333329	1.3008000000000004	1.0
818.2897826571547	0.0894333333333333	1.2857333333333334	1.0
818.2811862839304	0.08816666666666663	1.2400000000000002	1.0
817.7979821595012	0.0957333333333333	1.3156	1.0
817.7979821595012	0.09849999999999995	1.3257333333333339	1.0
817.7949982018249	0.08866666666666663	1.1805333333333337	1.0
817.7949982018249	0.09149999999999996	1.2308000000000003	1.0
817.4011199781628	0.09533333333333328	1.2628000000000001	1.0
816.9054926305492	0.09019999999999996	1.3165333333333336	1.0
816.9042264782028	0.09106666666666662	1.3200000000000003	1.0
816.9042264782028	0.09106666666666662	1.3256000000000001	1.0
816.2099789464883	0.09136666666666662	1.2084000000000004	1.0
815.3233720449635	0.09366666666666662	1.2084000000000004	1.0
815.324909527464	0.08799999999999995	1.184666666666667	1.0
815.3212391802543	0.09509999999999996	1.4	1.0
815.3212391802543	0.0962333333333333	1.3996	1.0
815.133605224527	0.09906666666666662	1.3477333333333334	1.0
814.7374042563672	0.09266666666666662	1.2182666666666668	1.0
814.7391798115278	0.09356666666666662	1.2556000000000003	1.0
814.7393170131562	0.09629999999999996	1.4321333333333333	1.0
814.7393170131562	0.09933333333333329	1.447733333333333	1.0
814.7393170131562	0.09929999999999996	1.4618666666666664	1.0
814.7328109401109	0.10219999999999997	1.4183999999999999	1.0
814.5339677597349	0.10219999999999997	1.3973333333333335	1.0
814.0472202985969	0.09259999999999996	1.294666666666667	1.0
814.0472202985969	0.09476666666666662	1.294666666666667	1.0
814.0450091649265	0.09766666666666664	1.2421333333333335	1.0
813.1657491366158	0.09206666666666662	1.2433333333333336	1.0
813.1632646196643	0.10389999999999996	1.3906666666666667	1.0
813.1632646196643	0.10119999999999996	1.3954666666666669	1.0
813.1632646196643	0.10239999999999995	1.3685333333333336	1.0
812.6768920512253	0.10126666666666663	1.3418666666666668	1.0
812.8628597376096	0.10306666666666663	1.39	1.0
812.8628597376096	0.09666666666666662	1.3402666666666667	1.0
811.4987741819483	0.1054333333333333	1.3242666666666667	1.0
811.4987741819483	0.1054333333333333	1.1629333333333334	1.0
811.4977561200724	0.09373333333333331	1.1689333333333336	1.0
811.4081821302569	0.09779999999999997	1.1689333333333336	1.0
811.4081879452376	0.10146666666666662	1.2764000000000002	1.0
811.3130846011229	0.1007333333333333	1.3220000000000003	1.0
811.3096731568972	0.10329999999999998	1.3728000000000002	1.0
811.3096731568972	0.10399999999999997	1.3737333333333337	1.0
811.1068225249203	0.10526666666666662	1.4574666666666667	1.0
811.1133162058499	0.10399999999999997	1.48	1.0
810.9101376264214	0.10466666666666662	1.4278666666666666	1.0
810.6213592792841	0.10266666666666663	1.3221333333333336	1.0
810.6213592792841	0.09826666666666663	1.3816000000000002	1.0
810.2382254743706	0.09826666666666663	1.2849333333333335	1.0
809.9404467001335	0.09703333333333329	1.2373333333333334	1.0
809.9404467001335	0.09529999999999997	1.2373333333333334	1.0
809.4559732784961	0.10216666666666661	1.2277333333333336	1.0
809.4559732784961	0.0962333333333333	1.1838666666666668	1.0
809.3581635454212	0.09899999999999996	1.165066666666667	1.0
809.3632088198812	0.0976333333333333	1.2104000000000001	1.0
808.1912975786049	0.09829999999999996	1.2525333333333335	1.0
808.2881735748895	0.09816666666666662	1.2094666666666667	1.0
808.2881735748895	0.09503333333333329	1.166666666666667	1.0
808.1979857143839	0.0955333333333333	1.191066666666667	1.0
808.0063249123627	0.10339999999999996	1.3340000000000003	1.0
808.0092202458311	0.10386666666666663	1.327466666666667	1.0
807.8996706363918	0.10309999999999997	1.3330666666666668	1.0
807.8996706363918	0.10309999999999997	1.3226666666666669	1.0
807.715486056107	0.09989999999999996	1.3226666666666669	1.0
807.7155239866083	0.10436666666666662	1.353866666666667	1.0
807.4228550292175	0.10249999999999995	1.3216000000000003	1.0
807.422291385133	0.10169999999999997	1.2653333333333334	1.0
807.422291385133	0.09409999999999995	1.1621333333333335	1.0
806.9401341745238	0.09916666666666663	1.2760000000000002	1.0
806.9401712495832	0.10289999999999996	1.3192000000000004	1.0
806.249479859222	0.09703333333333329	1.1908000000000003	1.0
806.0766064219349	0.09503333333333329	1.2272000000000003	1.0
806.0766064219349	0.09616666666666662	1.2401333333333333	1.0
806.0752857868763	0.09759999999999995	1.2210666666666667	1.0
806.0752857868763	0.09759999999999995	1.2337333333333336	1.0
805.7821959562585	0.09593333333333329	1.2402666666666669	1.0
804.9147117087101	0.09789999999999997	1.2402666666666669	1.0
804.9147117087101	0.09296666666666663	1.1928	1.0
804.7322555917233	0.09363333333333329	1.2106666666666668	1.0
804.628019564666	0.09783333333333329	1.2188000000000003	1.0
804.4373092408307	0.09343333333333328	1.1598666666666668	1.0
804.4373092408307	0.09029999999999996	1.1532000000000002	1.0
804.4373092408307	0.09179999999999995	1.1602666666666668	1.0
804.3449704545492	0.09323333333333328	1.16	1.0
804.3439376061415	0.09146666666666663	1.16	1.0
804.148630356353	0.09176666666666662	1.1592	1.0
804.148630356353	0.09176666666666662	1.1601333333333335	1.0
803.4874382551639	0.09106666666666662	1.1658666666666668	1.0
803.4874382551639	0.09696666666666662	1.1658666666666668	1.0
803.4825329958788	0.09269999999999996	1.247866666666667	1.0
803.1967268815521	0.1025333333333333	1.2426666666666668	1.0
802.719721902526	0.10576666666666663	1.2797333333333336	1.0
802.7234764796168	0.09406666666666662	1.2360000000000002	1.0
802.7234764796168	0.09986666666666662	1.267066666666667	1.0
802.718836735737	0.09609999999999995	1.253866666666667	1.0
801.4340328625065	0.09119999999999996	1.1588	1.0
801.3829745342294	0.0910333333333333	1.1660000000000001	1.0
801.378890162075	0.09979999999999996	1.16	1.0
801.378890162075	0.09253333333333329	1.1618666666666668	1.0
801.2813647750567	0.09253333333333329	1.2526666666666668	1.0
801.1898639639401	0.09419999999999996	1.2526666666666668	1.0
801.0597898310904	0.09926666666666663	1.3189333333333335	1.0
801.0932699416271	0.1007333333333333	1.2802666666666669	1.0
801.0932699416271	0.08986666666666662	1.1208	1.0
801.0965190371677	0.09296666666666663	1.08	1.0
800.9071495117289	0.08856666666666663	1.0798666666666668	1.0
800.810705564323	0.09436666666666663	1.1286666666666667	1.0
800.4310529727614	0.09039999999999997	1.1504	1.0
800.4310529727614	0.09263333333333329	1.1314666666666668	1.0
800.4312953999962	0.0967333333333333	1.161066666666667	1.0
800.3394549306287	0.09159999999999996	1.1558666666666666	1.0
800.3383257570484	0.09159999999999996	1.16	1.0
