wavelength(nm)	flourescence PMT(V)	ti_saph Power (V)	Gain (V)
804.8233635380719	0.09543333333333329	1.1888	1.0
804.8216410922712	0.09453333333333329	1.2089333333333336	1.0
804.7216406226194	0.09809999999999995	1.215066666666667	1.0
804.7216406226194	0.09836666666666662	1.2238666666666667	1.0
804.8231621994059	0.09666666666666662	1.225066666666667	1.0
804.8230628248364	0.09056666666666663	1.2289333333333337	1.0
804.823082104218	0.09423333333333328	1.2302666666666668	1.0
804.823059441611	0.09423333333333328	1.2388000000000001	1.0
804.823059441611	0.09089999999999997	1.2388000000000001	1.0
804.8215592676098	0.09349999999999996	1.2340000000000002	1.0
804.8173324144125	0.08996666666666663	1.2086666666666668	1.0
804.8223853889492	0.09416666666666662	1.1893333333333336	1.0
804.8231012713509	0.09766666666666662	1.1789333333333336	1.0
804.8231012713509	0.09826666666666663	1.2145333333333335	1.0
804.8230729178449	0.0954333333333333	1.2482666666666669	1.0
804.7796933858729	0.09466666666666662	1.247866666666667	1.0
804.8229642825482	0.08929999999999995	1.1981333333333335	1.0
804.8736081034561	0.09523333333333328	1.1901333333333335	1.0
804.8736081034561	0.09586666666666663	1.2118666666666669	1.0
804.8250332520107	0.09586666666666663	1.2137333333333336	1.0
804.9143131215105	0.09653333333333329	1.22	1.0
804.8242656822453	0.10126666666666663	1.22	1.0
804.8721705410777	0.09516666666666662	1.1812000000000002	1.0
804.8721705410777	0.09349999999999997	1.1793333333333336	1.0
804.8212125498352	0.09099999999999996	1.213066666666667	1.0
804.8231552692278	0.09539999999999996	1.2122666666666668	1.0
804.7240936438523	0.09213333333333329	1.2213333333333336	1.0
804.9183666419584	0.09386666666666663	1.2540000000000002	1.0
804.9183666419584	0.0992333333333333	1.1989333333333336	1.0
804.8713251072088	0.09436666666666663	1.1982666666666668	1.0
804.7261832506601	0.09689999999999996	1.2177333333333336	1.0
804.8226649653009	0.09689999999999996	1.2210666666666667	1.0
804.8264431626486	0.09303333333333329	1.1860000000000002	1.0
804.8264431626486	0.09443333333333329	1.1860000000000002	1.0
806.0733853738961	0.10176666666666662	1.2329333333333337	1.0
806.0721260762981	0.09446666666666662	1.2732	1.0
806.6549855845253	0.10109999999999995	1.2876000000000003	1.0
806.9385099877611	0.08966666666666663	1.2148	1.0
806.9385099877611	0.09816666666666661	1.2292	1.0
807.0333565262348	0.09906666666666662	1.3126666666666669	1.0
807.4229505991271	0.0983333333333333	1.2077333333333335	1.0
807.4193520861708	0.08929999999999995	1.1617333333333335	1.0
807.7157313832486	0.09489999999999994	1.1956000000000002	1.0
807.7157313832486	0.09489999999999994	1.2565333333333337	1.0
807.716416047099	0.09749999999999995	1.319866666666667	1.0
807.716416047099	0.0993333333333333	1.319866666666667	1.0
807.8997351562905	0.09486666666666663	1.3288000000000004	1.0
808.1021470868486	0.09923333333333328	1.3140000000000003	1.0
808.1021470868486	0.09433333333333328	1.302266666666667	1.0
808.0072785618989	0.10023333333333329	1.3226666666666669	1.0
808.2867207369555	0.09569999999999995	1.3149333333333335	1.0
808.3223614552878	0.09506666666666663	1.2284000000000004	1.0
809.1621506489286	0.08996666666666663	1.189466666666667	1.0
809.1621506489286	0.0966333333333333	1.3161333333333336	1.0
809.1621506489286	0.10233333333333329	1.3148000000000002	1.0
809.4546351426602	0.10036666666666663	1.2912000000000003	1.0
809.4546574694347	0.10036666666666663	1.2428000000000001	1.0
809.8470559466899	0.09906666666666662	1.2626666666666668	1.0
809.8470559466899	0.10116666666666663	1.2626666666666668	1.0
810.2376198553203	0.0967333333333333	1.2981333333333336	1.0
810.2382949584303	0.0964333333333333	1.2625333333333335	1.0
810.6289419878156	0.10119999999999996	1.2737333333333334	1.0
810.6288640159388	0.09843333333333329	1.3981333333333335	1.0
810.6288640159388	0.1015333333333333	1.3812	1.0
811.1101053530565	0.10969999999999994	1.4796	1.0
811.106641904187	0.10693333333333331	1.4801333333333333	1.0
811.1088097441387	0.10426666666666662	1.48	1.0
811.4082677507209	0.09889999999999996	1.48	1.0
811.4082677507209	0.09889999999999996	1.3949333333333334	1.0
811.4094960872665	0.10133333333333328	1.3470666666666669	1.0
811.410450872716	0.10309999999999996	1.3470666666666669	1.0
811.4986910509232	0.09329999999999995	1.3049333333333335	1.0
811.4979319510611	0.10169999999999997	1.2388000000000001	1.0
811.4979319510611	0.09449999999999996	1.1928	1.0
811.7971403186735	0.09599999999999996	1.1601333333333337	1.0
811.7934659253576	0.09586666666666664	1.1608	1.0
811.7933833378686	0.09396666666666663	1.1829333333333336	1.0
812.6801457840899	0.0905333333333333	1.2649333333333337	1.0
812.6801457840899	0.09433333333333328	1.386666666666667	1.0
813.0702568730186	0.09979999999999997	1.3217333333333336	1.0
813.0734223041143	0.09979999999999997	1.2260000000000002	1.0
813.1677803323489	0.09349999999999997	1.2397333333333336	1.0
813.1602455534892	0.09129999999999995	1.2397333333333336	1.0
813.1602455534892	0.09709999999999996	1.3309333333333335	1.0
813.1602455534892	0.09569999999999995	1.3072000000000004	1.0
814.0439140855334	0.09389999999999996	1.2425333333333335	1.0
814.3036241704849	0.09129999999999995	1.2453333333333334	1.0
814.7391218727797	0.09489999999999994	1.3613333333333337	1.0
814.7391218727797	0.1027333333333333	1.4018666666666666	1.0
814.7393942104745	0.10036666666666662	1.4770666666666667	1.0
814.738431051951	0.09976666666666661	1.4789333333333332	1.0
814.7397208478583	0.09759999999999995	1.4366666666666665	1.0
814.7361319240624	0.09759999999999995	1.4143999999999999	1.0
814.7361319240624	0.09939999999999995	1.4096	1.0
814.7379618380055	0.0938333333333333	1.4096	1.0
815.3209213246827	0.09369999999999995	1.4036000000000002	1.0
815.3245366404351	0.09766666666666662	1.2825333333333337	1.0
815.3244302656273	0.09449999999999996	1.343466666666667	1.0
815.3244302656273	0.09513333333333328	1.3661333333333336	1.0
816.204186490751	0.09599999999999996	1.3517333333333337	1.0
816.2088177949938	0.08683333333333329	1.1780000000000002	1.0
816.8172903641675	0.08856666666666663	1.1604	1.0
816.9072244981178	0.08849999999999997	1.3200000000000003	1.0
816.9072244981178	0.0973333333333333	1.3081333333333336	1.0
817.3035631670493	0.09143333333333328	1.3305333333333336	1.0
817.400822030528	0.09143333333333328	1.3757333333333337	1.0
817.5007844742182	0.09159999999999996	1.3757333333333337	1.0
817.5007844742182	0.0920333333333333	1.2888000000000004	1.0
817.5007844742182	0.08746666666666662	1.2289333333333337	1.0
817.5007844742182	0.09083333333333328	1.3233333333333337	1.0
818.1900004216403	0.09586666666666663	1.3277333333333334	1.0
818.4978856086923	0.08879999999999996	1.2468000000000004	1.0
818.4978921211009	0.08769999999999996	1.2396000000000003	1.0
818.4978921211009	0.08919999999999995	1.2409333333333337	1.0
818.4968705391049	0.08556666666666662	1.2454666666666667	1.0
818.5956402583877	0.08329999999999996	1.2416	1.0
818.5946988118548	0.08646666666666662	1.2400000000000002	1.0
818.5946988118548	0.08646666666666662	1.3113333333333337	1.0
819.789249649245	0.08933333333333329	1.3980000000000001	1.0
819.789249649245	0.0969333333333333	1.3980000000000001	1.0
819.7884801882275	0.08599999999999995	1.377066666666667	1.0
819.792711563284	0.09149999999999996	1.3781333333333334	1.0
820.7278299335181	0.09226666666666664	1.3552000000000002	1.0
820.7278299335181	0.08966666666666662	1.355866666666667	1.0
820.7278299335181	0.08619999999999996	1.3208000000000002	1.0
820.5883993124623	0.0876333333333333	1.3200000000000003	1.0
821.0855779279784	0.08836666666666661	1.3349333333333337	1.0
821.0855730790569	0.08916666666666662	1.4020000000000001	1.0
821.3869806095738	0.08923333333333329	1.4585333333333332	1.0
821.3869806095738	0.08923333333333329	1.3873333333333335	1.0
821.487811272176	0.08459999999999997	1.4634666666666665	1.0
821.7892088147477	0.08823333333333329	1.4634666666666665	1.0
821.7892088147477	0.08616666666666663	1.48	1.0
821.8891715853688	0.08606666666666662	1.448133333333333	1.0
821.8891715853688	0.08766666666666662	1.4002666666666668	1.0
821.8911085197439	0.08459999999999995	1.3934666666666666	1.0
822.1956994193268	0.09246666666666663	1.3332000000000004	1.0
822.2903129594597	0.08303333333333329	1.3200000000000003	1.0
822.2909011773687	0.08929999999999996	1.3185333333333336	1.0
822.2909011773687	0.08409999999999995	1.3177333333333336	1.0
822.6960457327243	0.08373333333333328	1.3957333333333335	1.0
823.4981996398271	0.08373333333333328	1.4798666666666669	1.0
823.4981996398271	0.08666666666666661	1.4670666666666665	1.0
823.9036747874432	0.08723333333333329	1.4670666666666665	1.0
823.9036747874432	0.08606666666666662	1.4494666666666667	1.0
823.9984453054055	0.08116666666666662	1.4797333333333331	1.0
824.4018841950361	0.08226666666666661	1.4381333333333333	1.0
824.4011050857874	0.08229999999999996	1.337066666666667	1.0
824.7685638699793	0.08429999999999994	1.3185333333333336	1.0
824.7685638699793	0.08439999999999995	1.319066666666667	1.0
824.7685638699793	0.08953333333333328	1.4797333333333331	1.0
825.3077246801996	0.07659999999999996	1.4841333333333333	1.0
825.3058828164071	0.08616666666666663	1.4857333333333334	1.0
825.4494370052576	0.08616666666666663	1.5605333333333335	1.0
825.4494370052576	0.08983333333333329	1.5537333333333336	1.0
825.3058665383483	0.08779999999999995	1.5537333333333336	1.0
825.719177990654	0.08746666666666662	1.4961333333333333	1.0
825.714807754441	0.08889999999999997	1.47	1.0
825.7160954781135	0.08186666666666663	1.4148	1.0
825.7160954781135	0.08056666666666662	1.3398666666666668	1.0
825.7160954781135	0.08123333333333328	1.3200000000000003	1.0
826.525566969409	0.07999999999999995	1.4812	1.0
826.525566969409	0.08106666666666662	1.4067999999999998	1.0
826.9339293875539	0.07886666666666663	1.3989333333333334	1.0
826.9339293875539	0.08049999999999995	1.4290666666666665	1.0
827.0327571800967	0.07803333333333329	1.3837333333333335	1.0
827.0327571800967	0.07803333333333329	1.3457333333333337	1.0
827.7476412145445	0.07879999999999995	1.3457333333333337	1.0
827.744507960205	0.07699999999999996	1.4061333333333335	1.0
827.744507960205	0.08329999999999996	1.48	1.0
827.9441811285308	0.08059999999999995	1.4825333333333333	1.0
827.9450934785223	0.0799333333333333	1.48	1.0
828.2600453138585	0.08123333333333328	1.5297333333333334	1.0
828.2600453138585	0.08353333333333329	1.4744000000000002	1.0
828.2600453138585	0.07596666666666661	1.3530666666666669	1.0
828.7574292187019	0.07389999999999995	1.3949333333333334	1.0
828.8568843567713	0.08133333333333329	1.48	1.0
829.2735662609896	0.08133333333333329	1.4185333333333332	1.0
829.3766271005217	0.07649999999999996	1.4830666666666665	1.0
829.3766271005217	0.07289999999999995	1.4830666666666665	1.0
829.3808274177334	0.08029999999999995	1.4974666666666667	1.0
829.4252963495478	0.07886666666666663	1.488533333333333	1.0
829.8832855333332	0.07646666666666661	1.4398666666666669	1.0
829.8923776586615	0.07449999999999994	1.48	1.0
829.8923776586615	0.07869999999999995	1.48	1.0
830.0870046991263	0.08346666666666662	1.48	1.0
830.3998632993488	0.08699999999999995	1.6074666666666666	1.0
830.3969472796352	0.0821333333333333	1.6339999999999997	1.0
831.1144991989065	0.08239999999999995	1.4786666666666666	1.0
831.1144991989065	0.07719999999999996	1.4689333333333332	1.0
831.2120150704361	0.07719999999999996	1.5776000000000001	1.0
831.2140866151375	0.08036666666666661	1.6398666666666664	1.0
831.530234404951	0.08376666666666663	1.6398666666666664	1.0
831.530234404951	0.07793333333333329	1.5666666666666667	1.0
831.530234404951	0.08083333333333328	1.4955999999999998	1.0
831.7265029622932	0.08226666666666661	1.4834666666666665	1.0
832.1368436957345	0.08119999999999995	1.4686666666666666	1.0
832.5566088312924	0.07919999999999995	1.4595999999999998	1.0
832.6481727431111	0.08299999999999995	1.4804	1.0
832.6481727431111	0.07886666666666663	1.48	1.0
832.9654282791205	0.08226666666666661	1.4117333333333333	1.0
832.965344334538	0.0851333333333333	1.3966666666666667	1.0
833.3759983647045	0.0851333333333333	1.3698666666666668	1.0
833.3759983647045	0.08533333333333329	1.48	1.0
833.3746766936033	0.09446666666666662	1.48	1.0
833.3746766936033	0.0974333333333333	1.5596	1.0
833.8899197106506	0.0957333333333333	1.5213333333333334	1.0
833.996664653866	0.09479999999999994	1.3421333333333336	1.0
833.9967568480627	0.10439999999999997	1.2677333333333336	1.0
833.9923355308888	0.10606666666666661	1.257866666666667	1.0
833.9923355308888	0.10836666666666664	1.1132000000000002	1.0
834.5160685919282	0.09809999999999995	0.6925333333333334	1.0
834.7172000883213	0.07986666666666663	0.36053333333333354	1.0
834.7221275208952	0.07269999999999995	0.18466666666666684	1.0
835.0331310449172	0.07269999999999995	0.09640000000000008	1.0
835.0331310449172	0.06639999999999995	0.02933333333333336	1.0
835.236570239904	0.06103333333333327	0.02933333333333336	1.0
835.7496024495077	0.056699999999999945	0.007066666666666673	1.0
835.6471837276358	0.056266666666666604	-0.021200000000000017	1.0
836.271291087202	0.052433333333333276	-0.021200000000000017	1.0
836.271291087202	0.052199999999999934	-0.024400000000000022	1.0
836.2753831866679	0.050999999999999934	-0.02173333333333335	1.0
836.582698308108	0.05446666666666661	-0.02013333333333335	1.0
836.5835548071419	0.0503666666666666	-0.022133333333333352	1.0
836.7893022673632	0.0465666666666666	-0.020266666666666686	1.0
836.7893022673632	0.052433333333333276	-0.022266666666666688	1.0
836.9938065810697	0.052433333333333276	-0.020933333333333352	1.0
837.102293396457	0.04939999999999994	-0.02280000000000002	1.0
837.4160455787604	0.05226666666666661	-0.02280000000000002	1.0
837.4144531250555	0.04929999999999994	-0.020666666666666684	1.0
837.4144531250555	0.05149999999999994	-0.024800000000000023	1.0
837.7251567444408	0.049799999999999935	-0.021866666666666687	1.0
837.726613655547	0.051966666666666606	-0.02386666666666669	1.0
838.146244312922	0.051699999999999934	-0.024533333333333355	1.0
838.4600480388833	0.05629999999999993	-0.024400000000000022	1.0
838.4600480388833	0.05323333333333327	-0.02160000000000002	1.0
838.9759219637908	0.04989999999999994	-0.022266666666666688	1.0
839.0841994985949	0.0524666666666666	-0.023733333333333353	1.0
839.1943849058309	0.0524666666666666	-0.024933333333333356	1.0
839.3978644790715	0.05529999999999994	-0.02386666666666669	1.0
839.3978644790715	0.05399999999999994	-0.02386666666666669	1.0
839.395148568607	0.0530666666666666	-0.02386666666666669	1.0
840.1428985832358	0.05173333333333327	-0.022133333333333352	1.0
840.3447420039163	0.052466666666666606	-0.026000000000000023	1.0
840.3451374112793	0.056399999999999936	-0.02586666666666669	1.0
840.3451374112793	0.05516666666666661	-0.02386666666666669	1.0
840.8635133943347	0.055499999999999945	-0.02626666666666669	1.0
840.8683725101645	0.05353333333333327	-0.022533333333333353	1.0
840.8645521093675	0.04943333333333327	-0.021466666666666686	1.0
840.972345225265	0.05229999999999993	-0.022933333333333354	1.0
840.972345225265	0.05229999999999993	-0.024933333333333356	1.0
841.2857790852796	0.05566666666666661	-0.021333333333333353	1.0
841.6001025774148	0.049233333333333275	-0.021333333333333353	1.0
841.708530431575	0.052433333333333276	-0.02360000000000002	1.0
841.7134626169944	0.05113333333333327	-0.022266666666666688	1.0
841.7134626169944	0.05213333333333327	-0.02160000000000002	1.0
841.7085837990134	0.0518666666666666	-0.022133333333333352	1.0
842.490647077318	0.05483333333333327	-0.02586666666666669	1.0
842.8672386616504	0.05069999999999994	-0.02173333333333335	1.0
842.8670032208368	0.05283333333333327	-0.02586666666666669	1.0
842.8670032208368	0.051433333333333275	-0.02320000000000002	1.0
843.0750789758197	0.0560666666666666	-0.026533333333333357	1.0
843.0750102777554	0.0560666666666666	-0.022533333333333353	1.0
843.3529488108985	0.05043333333333327	-0.023333333333333355	1.0
843.4976879366054	0.055066666666666604	-0.023333333333333355	1.0
843.4976879366054	0.04889999999999994	-0.024133333333333354	1.0
844.3426381452374	0.05253333333333327	-0.02520000000000002	1.0
844.3445892484484	0.051966666666666606	-0.02173333333333335	1.0
844.5593879777044	0.05413333333333327	-0.023733333333333353	1.0
844.5593879777044	0.05086666666666661	-0.02320000000000002	1.0
844.5593879777044	0.054199999999999936	-0.02320000000000002	1.0
844.7734291002079	0.05383333333333327	-0.024933333333333356	1.0
844.869506318556	0.0522666666666666	-0.026000000000000023	1.0
844.8708479972324	0.0537666666666666	-0.024400000000000022	1.0
842.9724081527586	0.05416666666666659	-0.025733333333333355	1.0
843.0748455154113	0.05603333333333327	-0.02426666666666669	1.0
842.9119444052717	0.05483333333333327	-0.024800000000000023	1.0
842.9119444052717	0.051799999999999936	-0.023466666666666688	1.0
842.4479099384602	0.04799999999999994	-0.02173333333333335	1.0
842.3331252457664	0.04799999999999994	-0.02240000000000002	1.0
841.7123915963242	0.0491666666666666	-0.02240000000000002	1.0
841.7045946397245	0.05333333333333327	-0.023466666666666688	1.0
841.7045946397245	0.05293333333333327	-0.02320000000000002	1.0
841.6028699737035	0.05283333333333327	-0.02626666666666669	1.0
841.5044930923378	0.05469999999999994	-0.023733333333333353	1.0
841.383399358614	0.054333333333333275	-0.02586666666666669	1.0
841.2837350240246	0.050499999999999934	-0.02280000000000002	1.0
841.2837350240246	0.0508666666666666	-0.022666666666666686	1.0
840.9640343977061	0.05309999999999993	-0.02426666666666669	1.0
840.963951504295	0.05259999999999994	-0.02320000000000002	1.0
840.8646659664959	0.0496666666666666	-0.021333333333333353	1.0
840.4412883581662	0.0496666666666666	-0.024800000000000023	1.0
840.4412883581662	0.05349999999999994	-0.024800000000000023	1.0
840.4439436102767	0.05383333333333327	-0.025733333333333355	1.0
840.3460307781054	0.05073333333333327	-0.02546666666666669	1.0
839.8201501307084	0.05036666666666661	-0.02080000000000002	1.0
839.5103058722509	0.05469999999999993	-0.02360000000000002	1.0
839.5103058722509	0.05219999999999994	-0.02400000000000002	1.0
839.4021946953031	0.0506666666666666	-0.022933333333333354	1.0
838.9789819414158	0.052999999999999936	-0.02506666666666669	1.0
838.97898021576	0.05119999999999993	-0.023066666666666687	1.0
838.5664340435541	0.0492666666666666	-0.02200000000000002	1.0
838.5664340435541	0.0505666666666666	-0.019866666666666685	1.0
838.1451588961268	0.0505666666666666	-0.02400000000000002	1.0
838.1458168904652	0.05459999999999994	-0.023466666666666688	1.0
837.7280180460446	0.05193333333333327	-0.023466666666666688	1.0
837.7284555371662	0.050333333333333265	-0.023333333333333355	1.0
837.7284555371662	0.05263333333333327	-0.024800000000000023	1.0
837.7279464527263	0.05353333333333327	-0.023333333333333355	1.0
837.415898760927	0.0524666666666666	-0.023066666666666687	1.0
837.0027922497717	0.05649999999999994	-0.02520000000000002	1.0
837.1067898633293	0.05429999999999994	-0.02386666666666669	1.0
837.1067898633293	0.05279999999999994	-0.02506666666666669	1.0
836.6274376992795	0.050999999999999934	-0.022266666666666688	1.0
836.5838721623783	0.050999999999999934	-0.02240000000000002	1.0
836.5805177807039	0.0525666666666666	-0.02360000000000002	1.0
836.0616783453376	0.050633333333333266	-0.02360000000000002	1.0
836.0616783453376	0.05229999999999994	-0.02386666666666669	1.0
836.0714453353768	0.05383333333333327	-0.02520000000000002	1.0
836.0620381473143	0.0480666666666666	-0.022133333333333352	1.0
835.858403971425	0.055066666666666604	-0.027066666666666694	1.0
835.4428096471365	0.05256666666666661	-0.022133333333333352	1.0
835.4428096471365	0.05663333333333327	-0.019600000000000017	1.0
835.4383327960777	0.0561666666666666	-0.01733333333333335	1.0
835.4384378209717	0.05586666666666661	0.0040000000000000036	1.0
835.0331838853673	0.06053333333333327	0.02680000000000002	1.0
835.0331838853673	0.07466666666666662	0.1406666666666668	1.0
835.0331838853673	0.07466666666666662	0.29466666666666685	1.0
834.7173101062199	0.08069999999999995	0.29466666666666685	1.0
834.300243167428	0.09529999999999995	0.5568000000000001	1.0
834.3086763324108	0.11309999999999995	1.072	1.0
833.8856158946286	0.10219999999999996	1.1750666666666667	1.0
833.8856158946286	0.10626666666666662	1.2840000000000003	1.0
833.8916120897522	0.09796666666666662	1.2448000000000001	1.0
833.3769131747335	0.09763333333333328	1.4642666666666666	1.0
833.3769131747335	0.09606666666666662	1.5573333333333335	1.0
833.3720955005978	0.09496666666666663	1.5839999999999999	1.0
833.3720955005978	0.09159999999999996	1.4786666666666668	1.0
832.9687955805786	0.08956666666666663	1.3988	1.0
832.9643082550296	0.08956666666666663	1.3936000000000002	1.0
832.554376502375	0.08489999999999996	1.4462666666666666	1.0
832.5498398791062	0.08389999999999996	1.4462666666666666	1.0
832.1378315723018	0.08753333333333328	1.4802666666666666	1.0
832.1378315723018	0.08519999999999994	1.4978666666666667	1.0
831.7243710196608	0.0804333333333333	1.45	1.0
831.7232452117178	0.08309999999999995	1.4201333333333335	1.0
831.7244082580439	0.07543333333333328	1.4805333333333333	1.0
831.1135220543747	0.07986666666666663	1.5410666666666668	1.0
831.1135220543747	0.08069999999999995	1.51	1.0
831.1152849192669	0.08026666666666661	1.3953333333333333	1.0
830.9005996693688	0.07719999999999995	1.349466666666667	1.0
830.3980221436989	0.07719999999999995	1.4301333333333333	1.0
830.3966911025901	0.07889999999999996	1.518	1.0
830.3966911025901	0.08189999999999996	1.518	1.0
829.8821911592618	0.0777333333333333	1.4845333333333335	1.0
829.8821911592618	0.08353333333333329	1.4655999999999998	1.0
829.4811825563563	0.07929999999999995	1.4402666666666668	1.0
829.4811997789346	0.08096666666666662	1.3718666666666668	1.0
829.4811997789346	0.08026666666666661	1.4205333333333332	1.0
829.378497191721	0.0816333333333333	1.4697333333333331	1.0
829.2796397629805	0.08419999999999994	1.4802666666666664	1.0
828.9052890664339	0.08189999999999996	1.4798666666666667	1.0
828.661037558053	0.0774333333333333	1.4161333333333335	1.0
828.661037558053	0.0774333333333333	1.3581333333333334	1.0
828.5642080630129	0.08236666666666662	1.3861333333333334	1.0
828.5642080630129	0.08473333333333329	1.3861333333333334	1.0
828.0445370982271	0.07916666666666662	1.4822666666666666	1.0
827.7475600435806	0.08459999999999997	1.5113333333333332	1.0
827.7475600435806	0.07709999999999995	1.48	1.0
827.3324478676708	0.08149999999999996	1.48	1.0
827.341477777147	0.08416666666666663	1.3841333333333337	1.0
827.3416844273225	0.07613333333333329	1.3814666666666668	1.0
826.9340193655484	0.07996666666666663	1.3966666666666667	1.0
826.9340193655484	0.08143333333333329	1.3889333333333336	1.0
826.8329052971727	0.08343333333333329	1.3232000000000004	1.0
826.1202095353619	0.08343333333333329	1.378266666666667	1.0
825.7140717066248	0.08666666666666661	1.4804	1.0
825.715767502861	0.08166666666666662	1.4804	1.0
825.715767502861	0.08493333333333329	1.3817333333333337	1.0
825.716037523509	0.08293333333333329	1.3749333333333336	1.0
825.715834629953	0.08056666666666662	1.4098666666666668	1.0
825.715834629953	0.08426666666666663	1.4797333333333331	1.0
825.2145530197355	0.08693333333333329	1.4846666666666666	1.0
825.2145530197355	0.09216666666666663	1.48	1.0
825.2147141939486	0.0886333333333333	1.4706666666666663	1.0
824.9993095778842	0.08306666666666662	1.48	1.0
824.9993095778842	0.08406666666666661	1.4367999999999999	1.0
824.405558374853	0.08406666666666661	1.4718666666666667	1.0
824.405558374853	0.0821333333333333	1.333466666666667	1.0
824.3041505075464	0.08366666666666663	1.333466666666667	1.0
824.3041505075464	0.08369999999999995	1.3533333333333337	1.0
824.0009202361568	0.08339999999999996	1.4401333333333335	1.0
823.9043938951778	0.08456666666666661	1.4570666666666667	1.0
823.9043938951778	0.08719999999999994	1.4735999999999998	1.0
823.9043938951778	0.08296666666666662	1.4796	1.0
823.4991954282851	0.08626666666666663	1.48	1.0
822.2961562225368	0.08523333333333329	1.4798666666666667	1.0
822.294141392044	0.08166666666666662	1.3594666666666668	1.0
822.294141392044	0.08723333333333329	1.3202666666666667	1.0
822.1953944099711	0.08576666666666662	1.3221333333333336	1.0
822.193389179728	0.08576666666666662	1.3688000000000002	1.0
822.193389179728	0.0903333333333333	1.3688000000000002	1.0
821.8915219612752	0.08826666666666663	1.3884	1.0
821.5844571690021	0.08963333333333329	1.4450666666666665	1.0
821.5844571690021	0.09263333333333329	1.48	1.0
821.5798099490427	0.08589999999999995	1.4758666666666667	1.0
821.390443696523	0.09346666666666661	1.48	1.0
821.0868649288045	0.09249999999999996	1.4146666666666665	1.0
821.0855538229196	0.09229999999999995	1.4689333333333332	1.0
821.0855538229196	0.08986666666666662	1.462	1.0
820.7813002360566	0.09363333333333329	1.4198666666666666	1.0
820.5916051078077	0.0906333333333333	1.4297333333333333	1.0
820.496724111388	0.0906333333333333	1.4630666666666665	1.0
819.7865649570715	0.09469999999999996	1.3804000000000003	1.0
819.7865649570715	0.09389999999999996	1.3804000000000003	1.0
819.7908815940456	0.09429999999999995	1.3713333333333337	1.0
819.2961317537748	0.09289999999999997	1.3913333333333335	1.0
818.6880099673814	0.09009999999999996	1.3582666666666667	1.0
818.5905923861733	0.09343333333333328	1.3856000000000002	1.0
818.5905923861733	0.09209999999999996	1.374266666666667	1.0
818.593170077645	0.09049999999999996	1.3109333333333337	1.0
818.593170077645	0.09513333333333328	1.3120000000000003	1.0
818.4976301562089	0.08839999999999996	1.3200000000000003	1.0
818.2877483810648	0.09366666666666662	1.2532	1.0
818.2877483810648	0.09366666666666662	1.2808000000000004	1.0
818.1954491857214	0.09059999999999996	1.3500000000000003	1.0
817.7974771630492	0.0887333333333333	1.3500000000000003	1.0
817.4997642645483	0.09509999999999996	1.3013333333333337	1.0
817.4013140692722	0.08846666666666662	1.2100000000000002	1.0
817.4013140692722	0.09179999999999995	1.2932000000000003	1.0
817.4013382933306	0.09403333333333329	1.3624	1.0
816.9118771590208	0.09396666666666662	1.3200000000000003	1.0
816.2088253045919	0.09036666666666662	1.3205333333333336	1.0
816.2048081078519	0.0971333333333333	1.2424000000000002	1.0
816.2048081078519	0.09076666666666662	1.1836000000000002	1.0
815.3198836182847	0.09979999999999996	1.3402666666666667	1.0
815.3209920311394	0.09979999999999996	1.3893333333333335	1.0
815.3243958731221	0.09599999999999996	1.3602666666666667	1.0
815.1304139373917	0.09313333333333329	1.3602666666666667	1.0
815.1304139373917	0.09289999999999995	1.1958666666666669	1.0
814.7355620766749	0.09519999999999997	1.4040000000000001	1.0
814.7355620766749	0.09583333333333328	1.4631999999999998	1.0
814.742533686497	0.10199999999999995	1.4559999999999997	1.0
814.7382112140812	0.09606666666666662	1.4336	1.0
814.7382112140812	0.09936666666666662	1.4070666666666667	1.0
814.7382112140812	0.09656666666666662	1.3912	1.0
814.0461387897033	0.08919999999999995	1.2402666666666669	1.0
813.1624686783545	0.09276666666666661	1.2909333333333337	1.0
813.1640311360552	0.09336666666666663	1.3529333333333338	1.0
813.1640311360552	0.09336666666666663	1.343466666666667	1.0
813.0703425878714	0.09353333333333329	1.343466666666667	1.0
813.0703598941187	0.10049999999999998	1.3710666666666669	1.0
812.680148408048	0.10216666666666664	1.3845333333333334	1.0
811.7977601311588	0.10109999999999997	1.3984	1.0
811.7977601311588	0.10156666666666662	1.3778666666666668	1.0
811.8017207094387	0.09919999999999994	1.4038666666666666	1.0
811.498978706719	0.09793333333333329	1.2706666666666668	1.0
811.4070846996715	0.09609999999999995	1.2089333333333336	1.0
811.405801492128	0.09826666666666663	1.2913333333333337	1.0
811.405801492128	0.1030333333333333	1.3193333333333335	1.0
811.4059309091543	0.09873333333333328	1.3246666666666669	1.0
811.3152703276077	0.09873333333333328	1.378666666666667	1.0
811.3152703276077	0.09926666666666663	1.391066666666667	1.0
811.1087759165445	0.10396666666666662	1.391066666666667	1.0
811.1087759165445	0.09716666666666664	1.4798666666666667	1.0
811.1096628537565	0.09859999999999997	1.4786666666666668	1.0
810.7211175419137	0.10149999999999997	1.3802666666666668	1.0
810.6226286792397	0.10639999999999997	1.3517333333333337	1.0
810.2355335922831	0.1049333333333333	1.354266666666667	1.0
810.2355335922831	0.09729999999999994	1.2476000000000003	1.0
809.7513792018348	0.09653333333333329	1.2345333333333335	1.0
809.7513792018348	0.09736666666666662	1.314266666666667	1.0
809.5520579863994	0.0967333333333333	1.2841333333333338	1.0
809.4560640572688	0.0967333333333333	1.3004000000000002	1.0
809.4560640572688	0.0974333333333333	1.2712000000000003	1.0
809.4507165920076	0.09943333333333328	1.2712000000000003	1.0
808.2906872976622	0.0998333333333333	1.2542666666666669	1.0
808.245452981673	0.09936666666666663	1.310266666666667	1.0
808.1954797841983	0.10113333333333328	1.3356000000000001	1.0
808.1954797841983	0.10056666666666662	1.3133333333333337	1.0
808.0103642850313	0.10326666666666662	1.3224	1.0
808.008336161471	0.1006333333333333	1.3269333333333337	1.0
807.8998154613535	0.10156666666666661	1.3093333333333335	1.0
807.8998154613535	0.10586666666666661	1.2805333333333335	1.0
807.8998154613535	0.0928333333333333	1.313466666666667	1.0
807.7164495278697	0.0928333333333333	1.3197333333333336	1.0
807.5144856029074	0.09859999999999997	1.3176000000000003	1.0
807.4220647626953	0.10333333333333329	1.3176000000000003	1.0
807.0299285421316	0.09443333333333329	1.2028	1.0
807.0299285421316	0.09553333333333329	1.2830666666666668	1.0
806.9361682441543	0.10016666666666664	1.3376000000000003	1.0
806.2651518015384	0.09506666666666663	1.1985333333333335	1.0
806.2651518015384	0.09929999999999994	1.2477333333333336	1.0
806.0745793931201	0.09659999999999995	1.2472000000000003	1.0
806.0745793931201	0.09499999999999996	1.2282666666666666	1.0
805.9691025988078	0.09389999999999996	1.1933333333333336	1.0
804.8227131274497	0.09599999999999996	1.2136000000000002	1.0
804.7241321912747	0.09599999999999996	1.222	1.0
804.8217265684192	0.09499999999999996	1.2298666666666669	1.0
804.8217265684192	0.0908333333333333	1.2298666666666669	1.0
804.6255416176564	0.09316666666666663	1.207466666666667	1.0
804.4409837178209	0.09626666666666661	1.1602666666666668	1.0
804.4409837178209	0.09186666666666662	1.1690666666666667	1.0
804.347238094227	0.1015333333333333	1.2412	1.0
804.347238094227	0.0903333333333333	1.16	1.0
804.2518220382121	0.09653333333333329	1.1568000000000003	1.0
804.1485625953959	0.09086666666666661	1.1673333333333336	1.0
804.0547002058456	0.09013333333333329	1.1628	1.0
802.9909308469104	0.10329999999999996	1.3026666666666669	1.0
802.9909308469104	0.09809999999999995	1.264666666666667	1.0
803.2979192389777	0.09809999999999995	1.2369333333333334	1.0
802.9021046129353	0.09319999999999995	1.197066666666667	1.0
802.7211720427305	0.09326666666666662	1.197066666666667	1.0
802.6293987881022	0.09219999999999995	1.287066666666667	1.0
802.6293987881022	0.09613333333333329	1.3193333333333335	1.0
802.7211544099471	0.0998333333333333	1.284266666666667	1.0
801.3806282618168	0.09323333333333328	1.1601333333333337	1.0
801.3878394573196	0.09589999999999996	1.1677333333333335	1.0
801.3857971857624	0.09576666666666662	1.1613333333333336	1.0
801.3857971857624	0.0947333333333333	1.2005333333333337	1.0
801.1945300293816	0.09396666666666663	1.319866666666667	1.0
801.1905266076627	0.10476666666666662	1.3808	1.0
801.1906576770175	0.10476666666666662	1.368666666666667	1.0
801.0984110646862	0.09956666666666661	1.282	1.0
801.0984110646862	0.09326666666666664	1.282	1.0
801.0974031315387	0.08859999999999994	1.0869333333333335	1.0
801.0974031315387	0.08979999999999996	1.0824	1.0
800.8112217170126	0.08723333333333329	1.1553333333333333	1.0
800.4333064069247	0.08829999999999996	1.1592000000000002	1.0
800.4333064069247	0.09299999999999996	1.1649333333333334	1.0
800.4294682938602	0.09256666666666663	1.1601333333333337	1.0
