wavelength(nm)	flourescence PMT(V)	ti_saph Power (V)	Gain (V)
804.4381534002579	0.10306666666666664	1.275066666666667	1.0
804.4381589848173	0.10286666666666663	1.3189333333333335	1.0
804.4381380066692	0.1010333333333333	1.3176000000000003	1.0
804.3452834728572	0.10309999999999996	1.319466666666667	1.0
804.3452834728572	0.10703333333333331	1.3030666666666668	1.0
804.4382861495085	0.09866666666666662	1.3065333333333335	1.0
804.4372440933902	0.10819999999999995	1.2933333333333337	1.0
804.439747333752	0.09546666666666662	1.2996000000000003	1.0
804.4374485672436	0.10326666666666662	1.3141333333333338	1.0
804.4382031997275	0.10516666666666663	1.3200000000000003	1.0
804.4382031997275	0.10516666666666663	1.3128000000000002	1.0
804.4373436370563	0.10443333333333331	1.3128000000000002	1.0
804.43721302158	0.10149999999999997	1.2717333333333334	1.0
804.4391778908113	0.09719999999999995	1.2460000000000002	1.0
804.439134324315	0.09666666666666664	1.2656000000000003	1.0
804.439134324315	0.09696666666666662	1.313466666666667	1.0
804.439147711652	0.09693333333333327	1.2710666666666668	1.0
804.437751602078	0.10193333333333329	1.2616000000000003	1.0
804.4417478832984	0.09396666666666663	1.2533333333333336	1.0
804.4414242727813	0.10156666666666664	1.2564000000000002	1.0
804.4414242727813	0.09886666666666662	1.2377333333333336	1.0
804.4381126746833	0.09886666666666662	1.2693333333333336	1.0
804.4397309343127	0.10463333333333329	1.26	1.0
804.4397916575601	0.09439999999999996	1.26	1.0
804.4384925368352	0.09669999999999997	1.2969333333333335	1.0
804.4384925368352	0.09806666666666662	1.302	1.0
804.438173033001	0.10309999999999996	1.3200000000000003	1.0
804.4357286094158	0.0971333333333333	1.3161333333333336	1.0
804.4373918798791	0.1026333333333333	1.319866666666667	1.0
804.4376568892338	0.09759999999999995	1.313866666666667	1.0
804.4376568892338	0.0993333333333333	1.2593333333333336	1.0
804.344457463163	0.09619999999999995	1.2590666666666668	1.0
804.6251867947875	0.09886666666666663	1.2674666666666667	1.0
804.7338066313869	0.09273333333333329	1.1949333333333334	1.0
804.719959872717	0.09273333333333329	1.243866666666667	1.0
804.719959872717	0.09449999999999996	1.2492	1.0
804.8266875539267	0.09856666666666664	1.2492	1.0
805.7870060150389	0.09269999999999995	1.1988000000000003	1.0
805.7870060150389	0.09429999999999995	1.2050666666666667	1.0
806.0743958061777	0.1026333333333333	1.2344000000000002	1.0
806.0743958061777	0.09976666666666661	1.2337333333333338	1.0
806.0753445464879	0.09679999999999996	1.2497333333333334	1.0
806.258299431508	0.1007333333333333	1.2597333333333336	1.0
806.9387545746312	0.09403333333333329	1.2276000000000002	1.0
807.4166919414034	0.10159999999999994	1.301866666666667	1.0
807.5150664269534	0.10139999999999996	1.2545333333333337	1.0
807.5150664269534	0.10139999999999996	1.16	1.0
807.7145275673987	0.09359999999999996	1.16	1.0
807.7145275673987	0.09719999999999995	1.16	1.0
807.6753234908786	0.0972333333333333	1.1613333333333336	1.0
807.8087612180723	0.10286666666666663	1.293466666666667	1.0
807.8087612180723	0.09563333333333328	1.314266666666667	1.0
807.8087612180723	0.10023333333333329	1.2565333333333337	1.0
808.0091328565361	0.09939999999999995	1.2397333333333336	1.0
808.1045003745515	0.09753333333333329	1.2506666666666668	1.0
808.0990663384408	0.10229999999999997	1.316666666666667	1.0
808.0990663384408	0.09633333333333328	1.2457333333333334	1.0
808.1969455451281	0.10093333333333329	1.2004000000000004	1.0
808.1976343676423	0.09726666666666663	1.2108	1.0
808.1976343676423	0.09726666666666663	1.301866666666667	1.0
808.1976343676423	0.09649999999999996	1.2740000000000002	1.0
808.1976343676423	0.09766666666666664	1.2740000000000002	1.0
809.4534606697976	0.10029999999999996	1.2360000000000002	1.0
809.4544339054905	0.09316666666666663	1.2190666666666667	1.0
809.9371475148824	0.09159999999999996	1.2032	1.0
810.4809912595996	0.10119999999999996	1.2397333333333336	1.0
810.4809912595996	0.09666666666666662	1.1633333333333336	1.0
810.6286801640659	0.10193333333333329	1.3178666666666672	1.0
810.6224637393382	0.10213333333333328	1.3838666666666668	1.0
811.1086087460405	0.10476666666666662	1.4038666666666666	1.0
811.1043631892758	0.1049333333333333	1.48	1.0
811.1043631892758	0.10646666666666664	1.48	1.0
811.1088877227667	0.10646666666666664	1.4762666666666666	1.0
811.1088877227667	0.1043333333333333	1.4762666666666666	1.0
811.3060447116178	0.11026666666666661	1.4357333333333335	1.0
811.4092326766471	0.09919999999999995	1.327466666666667	1.0
811.4103735245558	0.10479999999999996	1.3112000000000004	1.0
811.4103735245558	0.09746666666666663	1.303866666666667	1.0
811.4999656775962	0.09556666666666662	1.2090666666666667	1.0
811.5000745934714	0.08963333333333329	1.1613333333333336	1.0
811.800939833411	0.09203333333333329	1.1600000000000001	1.0
811.793161869744	0.09029999999999996	1.16	1.0
811.793161869744	0.0966333333333333	1.1602666666666668	1.0
812.6736794552503	0.1051333333333333	1.3005333333333335	1.0
812.8619170683382	0.1051333333333333	1.3997333333333335	1.0
813.1594293711903	0.1015333333333333	1.370666666666667	1.0
813.1611926501645	0.10169999999999997	1.370666666666667	1.0
813.1611926501645	0.10413333333333329	1.3948000000000003	1.0
813.165484959854	0.09886666666666662	1.4318666666666664	1.0
813.1602716612205	0.09879999999999996	1.468133333333333	1.0
813.1602716612205	0.09979999999999997	1.4096	1.0
814.051450610618	0.09739999999999994	1.2396000000000003	1.0
814.051450610618	0.09159999999999996	1.2310666666666668	1.0
814.0470643319127	0.09246666666666663	1.2753333333333334	1.0
814.5280291746095	0.09649999999999996	1.3585333333333338	1.0
814.7408159814823	0.09929999999999997	1.3912	1.0
814.7402886349141	0.09843333333333329	1.4017333333333335	1.0
814.7402886349141	0.09843333333333329	1.4002666666666668	1.0
814.7360972908226	0.09979999999999996	1.4002666666666668	1.0
814.736024326756	0.10079999999999996	1.4001333333333335	1.0
815.1350034352929	0.10329999999999996	1.3534666666666668	1.0
815.3213293911577	0.09526666666666661	1.1973333333333336	1.0
815.3213293911577	0.1015333333333333	1.3190666666666668	1.0
815.3258698228136	0.09199999999999996	1.324	1.0
816.2064916146896	0.09886666666666663	1.3173333333333335	1.0
816.2065012813948	0.0918333333333333	1.1601333333333337	1.0
816.9061553309631	0.09213333333333329	1.1602666666666668	1.0
817.0011051250682	0.10043333333333328	1.320266666666667	1.0
817.0011051250682	0.0929333333333333	1.2524000000000002	1.0
817.3006650199654	0.0929333333333333	1.2952000000000001	1.0
817.4936141002536	0.09013333333333329	1.2233333333333336	1.0
817.4936141002536	0.09196666666666663	1.2233333333333336	1.0
817.7917096728506	0.09673333333333328	1.2392000000000003	1.0
817.7917096728506	0.09416666666666663	1.2316000000000003	1.0
818.2886877231791	0.08729999999999997	1.317466666666667	1.0
818.2886877231791	0.09433333333333328	1.2588000000000004	1.0
818.2909843960912	0.08869999999999995	1.1884000000000003	1.0
818.2909843960912	0.09056666666666663	1.2137333333333336	1.0
818.2909843960912	0.09209999999999996	1.257866666666667	1.0
818.4966615750553	0.08729999999999996	1.2409333333333334	1.0
818.8244942197058	0.08483333333333329	1.2400000000000002	1.0
818.6860300742989	0.08483333333333329	1.3212000000000002	1.0
818.6860300742989	0.09373333333333328	1.3974666666666666	1.0
818.6860300742989	0.09039999999999995	1.3974666666666666	1.0
819.7914089757088	0.09326666666666662	1.3597333333333337	1.0
819.7883091582513	0.09589999999999996	1.3556000000000001	1.0
819.7896677408718	0.09239999999999995	1.3192000000000002	1.0
820.5907615145754	0.09199999999999996	1.3048000000000002	1.0
820.5907615145754	0.0923333333333333	1.3512000000000002	1.0
820.5904238127143	0.08943333333333328	1.330266666666667	1.0
820.5904400143348	0.09236666666666662	1.3206666666666669	1.0
820.9871891362129	0.09066666666666662	1.3193333333333335	1.0
821.0811501718413	0.09576666666666662	1.3996	1.0
821.0811501718413	0.09576666666666662	1.4157333333333335	1.0
821.0811501718413	0.09149999999999996	1.441066666666667	1.0
821.5840998594772	0.0918333333333333	1.441066666666667	1.0
821.888951273763	0.08973333333333329	1.48	1.0
821.888951273763	0.09119999999999996	1.4747999999999999	1.0
821.888951273763	0.08723333333333329	1.404	1.0
821.8900567893171	0.09023333333333329	1.4004	1.0
822.1960442141191	0.09399999999999996	1.3756000000000002	1.0
822.2918359735195	0.09116666666666662	1.3201333333333336	1.0
822.1859980386738	0.09003333333333328	1.3200000000000003	1.0
822.1859980386738	0.08736666666666662	1.319866666666667	1.0
822.1859980386738	0.08406666666666661	1.3200000000000003	1.0
823.4952651515691	0.08406666666666661	1.3568000000000002	1.0
823.497745926574	0.09073333333333329	1.4758666666666667	1.0
823.4878001666306	0.08789999999999995	1.4758666666666667	1.0
823.4975804400586	0.08376666666666663	1.4728	1.0
823.4975804400586	0.0867333333333333	1.4229333333333334	1.0
824.10066059831	0.08563333333333328	1.4466666666666668	1.0
824.0961416248886	0.08656666666666661	1.4306666666666665	1.0
824.3074009394471	0.09076666666666663	1.3957333333333335	1.0
824.3069934527771	0.08586666666666662	1.3265333333333336	1.0
824.3069934527771	0.08703333333333328	1.3194666666666668	1.0
824.8063204712902	0.08386666666666662	1.4450666666666665	1.0
825.0445973947657	0.09003333333333328	1.418	1.0
825.308838901198	0.08446666666666662	1.3368000000000002	1.0
825.308838901198	0.08446666666666662	1.4220000000000002	1.0
825.308838901198	0.08189999999999996	1.4773333333333332	1.0
825.3046405604638	0.08396666666666662	1.4773333333333332	1.0
825.6123030485384	0.08306666666666662	1.4446666666666665	1.0
825.7108380088587	0.08623333333333329	1.4133333333333333	1.0
825.7070805026298	0.08453333333333328	1.3741333333333337	1.0
825.7070805026298	0.0841333333333333	1.3201333333333336	1.0
825.8113070119688	0.08056666666666662	1.319866666666667	1.0
825.8113070119688	0.08373333333333328	1.4658666666666667	1.0
826.5238538450943	0.08579999999999996	1.484	1.0
826.5238538450943	0.07989999999999994	1.3778666666666668	1.0
826.5238538450943	0.07919999999999995	1.3265333333333336	1.0
826.5238538450943	0.08019999999999997	1.3713333333333337	1.0
825.8650059422224	0.08019999999999997	1.3825333333333334	1.0
827.339351052521	0.08006666666666663	1.3825333333333334	1.0
827.3406047778778	0.08323333333333328	1.3954666666666666	1.0
827.8426967889178	0.08419999999999994	1.3410666666666669	1.0
827.8426967889178	0.07616666666666662	1.4318666666666666	1.0
828.0448157365852	0.08243333333333328	1.4678666666666667	1.0
828.051560988217	0.08249999999999995	1.48	1.0
828.6605587778404	0.07659999999999996	1.5056	1.0
828.6626346053732	0.08193333333333327	1.4012	1.0
828.6626346053732	0.08236666666666662	1.3452000000000002	1.0
828.8587527554646	0.07766666666666662	1.465733333333333	1.0
829.2712162385862	0.08896666666666662	1.48	1.0
829.2742448975122	0.08896666666666662	1.3765333333333334	1.0
829.2730715002818	0.08276666666666663	1.4798666666666667	1.0
829.2730715002818	0.08203333333333328	1.4798666666666667	1.0
829.4746888433594	0.08089999999999996	1.4789333333333332	1.0
829.4761621473385	0.07963333333333329	1.3820000000000003	1.0
829.8891887873858	0.07946666666666662	1.3684000000000003	1.0
829.9842966649924	0.07909999999999995	1.48	1.0
829.9842966649924	0.08236666666666662	1.4681333333333333	1.0
830.4004576445844	0.08316666666666662	1.5390666666666668	1.0
830.4887635998567	0.07986666666666663	1.4846666666666666	1.0
830.9123885707322	0.0778333333333333	1.3369333333333335	1.0
831.2592652311151	0.08046666666666662	1.3925333333333334	1.0
831.214061281067	0.08189999999999996	1.48	1.0
831.214061281067	0.08189999999999996	1.5558666666666667	1.0
831.5319524590176	0.08823333333333329	1.4901333333333333	1.0
831.5319524590176	0.08489999999999995	1.4901333333333333	1.0
831.726174824764	0.08269999999999995	1.4705333333333335	1.0
832.5553009383237	0.07833333333333328	1.4604	1.0
832.5553009383237	0.08096666666666662	1.4553333333333334	1.0
832.550836236329	0.08606666666666662	1.4881333333333333	1.0
832.7554967535281	0.08936666666666662	1.5561333333333336	1.0
832.9630854961608	0.08769999999999996	1.4520000000000002	1.0
832.9618996049327	0.08726666666666662	1.3981333333333332	1.0
832.9618996049327	0.09046666666666663	1.3942666666666665	1.0
832.9618996049327	0.09086666666666662	1.4162666666666666	1.0
832.9618996049327	0.09086666666666662	1.4924	1.0
833.374772539133	0.09483333333333328	1.552266666666667	1.0
833.8868248953978	0.09776666666666661	1.552266666666667	1.0
833.8868248953978	0.10756666666666663	1.4232	1.0
833.8856427387798	0.10109999999999995	1.223066666666667	1.0
834.202388889378	0.10506666666666663	1.2090666666666667	1.0
834.304295552299	0.10929999999999995	1.1513333333333335	1.0
834.7156605231079	0.1063333333333333	0.9202666666666668	1.0
834.7156605231079	0.1063333333333333	0.9202666666666668	1.0
835.2665517974134	0.1063333333333333	0.9202666666666668	1.0
835.0297132876548	0.1063333333333333	0.9202666666666668	1.0
835.4382242745444	0.06539999999999994	0.052400000000000044	1.0
835.4367612386078	0.06053333333333327	-0.002400000000000002	1.0
835.7503790494331	0.05446666666666661	-0.010933333333333344	1.0
835.7503790494331	0.05289999999999995	-0.023466666666666688	1.0
835.6484239436701	0.052699999999999934	-0.026000000000000023	1.0
836.0616884551881	0.054533333333333274	-0.028000000000000025	1.0
836.0677530121495	0.054533333333333274	-0.028266666666666693	1.0
836.5789440606563	0.0520666666666666	-0.028266666666666693	1.0
836.5789440606563	0.05539999999999994	-0.027333333333333355	1.0
836.7920255443746	0.0530666666666666	-0.02626666666666669	1.0
836.7394691082687	0.05563333333333328	-0.027600000000000027	1.0
837.1020911111572	0.053966666666666614	-0.028666666666666694	1.0
836.9997457988205	0.05103333333333327	-0.026400000000000024	1.0
836.9997457988205	0.057099999999999936	-0.02813333333333336	1.0
837.1009495395061	0.05283333333333327	-0.024400000000000022	1.0
837.4147443704518	0.053933333333333264	-0.024933333333333356	1.0
837.7238547678926	0.05119999999999994	-0.02386666666666669	1.0
838.1432666974988	0.05119999999999994	-0.02680000000000002	1.0
838.1432666974988	0.05143333333333327	-0.02680000000000002	1.0
838.2025948707743	0.05283333333333327	-0.02680000000000002	1.0
838.1436903825305	0.0500666666666666	-0.024533333333333355	1.0
838.6680248447984	0.05173333333333327	-0.028000000000000025	1.0
838.5654363679357	0.0531666666666666	-0.02520000000000002	1.0
838.5654363679357	0.0525666666666666	-0.02680000000000002	1.0
838.9773293650488	0.05489999999999995	-0.02680000000000002	1.0
839.085487018504	0.05476666666666661	-0.02746666666666669	1.0
839.3998921297801	0.052166666666666604	-0.02853333333333336	1.0
839.4981082922659	0.05159999999999994	-0.02666666666666669	1.0
839.4981082922659	0.056733333333333275	-0.027200000000000023	1.0
839.9260635189277	0.056733333333333275	-0.02813333333333336	1.0
840.4442150973864	0.05249999999999994	-0.028000000000000025	1.0
840.5520885398868	0.054366666666666605	-0.028000000000000025	1.0
840.6642634715746	0.05529999999999994	-0.028933333333333356	1.0
840.6642634715746	0.05409999999999994	-0.029200000000000028	1.0
840.8682895399317	0.050966666666666605	-0.02506666666666669	1.0
840.9720893638217	0.052533333333333265	-0.027066666666666694	1.0
841.2386233594402	0.049966666666666604	-0.02746666666666669	1.0
841.2873900551531	0.05543333333333327	-0.028800000000000027	1.0
841.3956056128692	0.05199999999999994	-0.02813333333333336	1.0
841.3956056128692	0.0539666666666666	-0.02746666666666669	1.0
841.600215590761	0.054333333333333275	-0.026000000000000023	1.0
841.7081534893964	0.054333333333333275	-0.02506666666666669	1.0
841.7074825439747	0.05326666666666661	-0.02400000000000002	1.0
842.2334126117918	0.0499666666666666	-0.02400000000000002	1.0
842.2334126117918	0.0537666666666666	-0.025600000000000022	1.0
842.3407926499838	0.0505666666666666	-0.024933333333333356	1.0
842.8704014939544	0.0520666666666666	-0.02546666666666669	1.0
843.0698973579975	0.054966666666666615	-0.027200000000000023	1.0
843.0702115829974	0.051433333333333275	-0.02426666666666669	1.0
843.0702115829974	0.05463333333333326	-0.027200000000000023	1.0
843.0698619395029	0.05603333333333327	-0.025733333333333355	1.0
843.496555164357	0.05529999999999994	-0.02506666666666669	1.0
844.3463986652678	0.05823333333333328	-0.02853333333333336	1.0
844.3471329395816	0.05823333333333328	-0.02320000000000002	1.0
844.3471329395816	0.05209999999999994	-0.02626666666666669	1.0
844.669075396644	0.05293333333333327	-0.02626666666666669	1.0
844.7731172906884	0.05073333333333327	-0.026533333333333357	1.0
844.7731172906884	0.0549666666666666	-0.028800000000000027	1.0
844.7712279018594	0.051799999999999936	-0.02546666666666669	1.0
844.7712279018594	0.054366666666666605	-0.03013333333333336	1.0
842.7665058427796	0.05753333333333328	-0.02746666666666669	1.0
842.7665058427796	0.05303333333333327	-0.024533333333333355	1.0
842.5539016654537	0.04919999999999993	-0.022933333333333354	1.0
842.1282171201373	0.054166666666666606	-0.02520000000000002	1.0
841.9151156056466	0.05736666666666661	-0.028933333333333356	1.0
841.7112096151685	0.055933333333333266	-0.027333333333333355	1.0
841.7112096151685	0.057099999999999936	-0.02786666666666669	1.0
841.3960256820833	0.05233333333333327	-0.024800000000000023	1.0
841.6000545291952	0.05203333333333327	-0.025600000000000022	1.0
841.2884696355696	0.05203333333333327	-0.026000000000000023	1.0
840.9723582842921	0.055533333333333275	-0.027066666666666694	1.0
840.9723582842921	0.054766666666666595	-0.027066666666666694	1.0
840.9675004855973	0.05349999999999994	-0.02813333333333336	1.0
840.8639251512762	0.0532666666666666	-0.026000000000000023	1.0
840.8682290802918	0.05609999999999995	-0.025333333333333357	1.0
840.5532075142407	0.053066666666666616	-0.02626666666666669	1.0
840.4452331427052	0.0537666666666666	-0.02853333333333336	1.0
840.4452331427052	0.05413333333333327	-0.027200000000000023	1.0
839.8196194234916	0.052533333333333265	-0.027333333333333355	1.0
839.5044434921741	0.057099999999999936	-0.02933333333333336	1.0
839.5028389398808	0.051499999999999935	-0.02240000000000002	1.0
839.0818683811605	0.051499999999999935	-0.026533333333333357	1.0
839.0818683811605	0.05349999999999994	-0.027333333333333355	1.0
839.0914725985908	0.04949999999999993	-0.027333333333333355	1.0
838.875196583402	0.05199999999999994	-0.024533333333333355	1.0
838.1456381027375	0.055633333333333264	-0.027600000000000027	1.0
838.1480611914116	0.05433333333333326	-0.026533333333333357	1.0
838.1480611914116	0.052999999999999936	-0.024933333333333356	1.0
837.7282821091367	0.053633333333333276	-0.02786666666666669	1.0
837.7232925397681	0.052966666666666606	-0.025333333333333357	1.0
837.7285960612169	0.055566666666666605	-0.028000000000000025	1.0
837.415653128281	0.05043333333333327	-0.026133333333333356	1.0
837.415653128281	0.05453333333333326	-0.026933333333333358	1.0
837.1066076099717	0.05453333333333326	-0.026000000000000023	1.0
836.9996397410159	0.056699999999999945	-0.028266666666666693	1.0
836.9013125660724	0.05429999999999994	-0.028266666666666693	1.0
836.7977936928381	0.05369999999999994	-0.02626666666666669	1.0
836.7977936928381	0.053166666666666605	-0.027600000000000027	1.0
836.3797029323522	0.05443333333333328	-0.02746666666666669	1.0
836.0577634439944	0.052966666666666606	-0.02360000000000002	1.0
836.0619973638159	0.053166666666666605	-0.026000000000000023	1.0
835.8555740590657	0.0528666666666666	-0.025600000000000022	1.0
835.652116466114	0.054799999999999946	-0.02426666666666669	1.0
835.652116466114	0.05543333333333327	-0.027733333333333356	1.0
835.6431293986453	0.057133333333333265	-0.02426666666666669	1.0
835.2343450163202	0.057133333333333265	-0.011066666666666676	1.0
835.2325990521912	0.05916666666666661	0.018400000000000017	1.0
835.2344462339032	0.06316666666666661	0.018400000000000017	1.0
835.2344462339032	0.06163333333333327	0.04973333333333337	1.0
834.7143967272236	0.06863333333333328	0.17666666666666683	1.0
834.3003630765044	0.08726666666666663	0.29706666666666687	1.0
834.3039147253958	0.09839999999999996	0.7701333333333332	1.0
834.2983011181798	0.09839999999999996	0.7701333333333332	1.0
834.2983011181798	0.09839999999999996	0.7701333333333332	1.0
833.8912121834776	0.09839999999999996	0.7701333333333332	1.0
833.8911571547783	0.10676666666666662	1.2893333333333337	1.0
833.8911571547783	0.10206666666666664	1.2396000000000003	1.0
833.3714024323162	0.09703333333333329	1.4561333333333335	1.0
833.3714024323162	0.0954333333333333	1.559066666666667	1.0
833.3751216387152	0.09956666666666664	1.5600000000000003	1.0
832.9564003447211	0.09136666666666664	1.4793333333333332	1.0
832.9603613389816	0.08729999999999995	1.3838666666666668	1.0
832.9623194048808	0.08729999999999995	1.3889333333333336	1.0
832.9623194048808	0.0894333333333333	1.4502666666666666	1.0
832.9623194048808	0.08576666666666663	1.4502666666666666	1.0
832.5507488196492	0.08833333333333329	1.4733333333333334	1.0
832.1378357415731	0.0874333333333333	1.472533333333333	1.0
831.7276675710643	0.08266666666666662	1.3937333333333333	1.0
831.7276675710643	0.08516666666666663	1.3725333333333336	1.0
831.7263243584276	0.08736666666666662	1.4065333333333334	1.0
831.7263243584276	0.08123333333333328	1.5296	1.0
831.1133703826579	0.08063333333333329	1.5125333333333333	1.0
831.1188506164093	0.07836666666666661	1.48	1.0
830.9031278497602	0.07763333333333328	1.4671999999999998	1.0
830.9031278497602	0.07763333333333328	1.3632000000000002	1.0
830.5980000225348	0.07996666666666663	1.4836	1.0
830.3966736877638	0.08089999999999996	1.4836	1.0
829.8915247685144	0.07876666666666662	1.5504000000000002	1.0
829.4755288910421	0.08299999999999995	1.4432	1.0
829.4755288910421	0.07923333333333328	1.4797333333333331	1.0
829.4766014667836	0.08283333333333329	1.3321333333333336	1.0
829.475584855459	0.08059999999999995	1.4102666666666666	1.0
829.2744710820614	0.0841333333333333	1.458	1.0
829.3773904162517	0.08286666666666662	1.4164	1.0
829.3773904162517	0.08189999999999996	1.3690666666666669	1.0
828.8621492672785	0.08649999999999997	1.48	1.0
828.6560208493061	0.08649999999999997	1.412	1.0
828.6560208493061	0.07546666666666661	1.4189333333333336	1.0
828.0524497809075	0.08496666666666662	1.4189333333333336	1.0
828.0524497809075	0.08683333333333329	1.4846666666666666	1.0
827.9438814679046	0.08506666666666662	1.4978666666666667	1.0
827.9410773860478	0.08679999999999995	1.4825333333333333	1.0
827.7431166080221	0.08386666666666663	1.5068000000000001	1.0
827.0290436463922	0.08419999999999996	1.4020000000000001	1.0
827.0290436463922	0.08176666666666663	1.3774666666666668	1.0
827.3339812459039	0.08209999999999996	1.3821333333333337	1.0
826.832969364648	0.07989999999999996	1.385066666666667	1.0
826.9317514632792	0.07909999999999995	1.3349333333333335	1.0
826.1161639751971	0.08546666666666662	1.37	1.0
826.1170323235211	0.08546666666666662	1.4817333333333333	1.0
826.1170323235211	0.08286666666666662	1.4537333333333333	1.0
825.7147644836579	0.08359999999999995	1.4537333333333333	1.0
825.7167844431824	0.08683333333333329	1.3244000000000002	1.0
825.6162001939563	0.0868333333333333	1.3889333333333336	1.0
825.4049315059345	0.08499999999999995	1.468	1.0
825.4049315059345	0.08379999999999996	1.4670666666666667	1.0
825.4049315059345	0.08463333333333328	1.465466666666667	1.0
825.3074868721685	0.08726666666666662	1.4684	1.0
825.3074868721685	0.08409999999999994	1.4258666666666666	1.0
824.7114691062274	0.09163333333333329	1.4708	1.0
824.7114691062274	0.08416666666666663	1.3990666666666667	1.0
824.4018261127926	0.08416666666666663	1.3001333333333336	1.0
824.3081826182964	0.08433333333333329	1.305066666666667	1.0
824.0958831435161	0.08323333333333328	1.305066666666667	1.0
823.9033810726819	0.08589999999999995	1.3750666666666669	1.0
823.9033810726819	0.08249999999999995	1.4130666666666667	1.0
823.496857077186	0.08593333333333329	1.4066666666666667	1.0
823.500924857576	0.08979999999999995	1.4798666666666667	1.0
822.6958567082785	0.08519999999999996	1.48	1.0
822.6958567082785	0.09116666666666662	1.4733333333333334	1.0
822.2907292441375	0.08499999999999995	1.336266666666667	1.0
822.2907292441375	0.08809999999999997	1.3200000000000003	1.0
822.1932980239521	0.09223333333333329	1.3228000000000002	1.0
821.8872031032329	0.09079999999999996	1.3304000000000005	1.0
821.8899596965159	0.09079999999999996	1.4183999999999999	1.0
821.8880901778175	0.0918333333333333	1.4643999999999997	1.0
821.8880901778175	0.08779999999999996	1.4643999999999997	1.0
821.8909239044191	0.09319999999999995	1.4543999999999997	1.0
821.8909239044191	0.09246666666666663	1.4711999999999998	1.0
821.0854266700654	0.09013333333333329	1.4701333333333333	1.0
820.9908454332237	0.09149999999999996	1.4313333333333333	1.0
820.9908454332237	0.08876666666666662	1.4770666666666665	1.0
820.5929265988453	0.0879333333333333	1.3983999999999999	1.0
820.590381980866	0.09196666666666663	1.3528000000000002	1.0
820.4918026339368	0.09329999999999995	1.4545333333333332	1.0
819.7898692088493	0.08669999999999997	1.4605333333333332	1.0
819.7898692088493	0.08669999999999997	1.3745333333333336	1.0
819.793863151869	0.09086666666666664	1.3804000000000003	1.0
819.3929250281801	0.09083333333333328	1.3804000000000003	1.0
818.6878149189389	0.09249999999999996	1.337866666666667	1.0
818.5936649580876	0.0920333333333333	1.3637333333333332	1.0
818.5936649580876	0.09519999999999997	1.3206666666666669	1.0
818.589624889302	0.09189999999999995	1.3024	1.0
818.589624889302	0.09446666666666663	1.243466666666667	1.0
818.288497329337	0.08879999999999995	1.282	1.0
818.288497329337	0.08883333333333328	1.2397333333333336	1.0
818.288497329337	0.09319999999999995	1.2400000000000002	1.0
818.1952372311692	0.0889333333333333	1.306666666666667	1.0
818.1953301183186	0.0889333333333333	1.3285333333333336	1.0
817.4952694821326	0.10426666666666662	1.2349333333333334	1.0
817.495272384323	0.08849999999999994	1.2349333333333334	1.0
817.495272384323	0.08446666666666662	1.1738666666666668	1.0
817.4027072806368	0.09619999999999995	1.2406666666666668	1.0
816.9068380681177	0.09359999999999996	1.3200000000000003	1.0
816.810638163603	0.09429999999999997	1.319866666666667	1.0
816.2063103755969	0.09336666666666663	1.3273333333333335	1.0
816.2097791954645	0.09513333333333328	1.1964000000000004	1.0
816.2097791954645	0.09366666666666662	1.1745333333333334	1.0
815.32442292396	0.10269999999999994	1.3858666666666668	1.0
815.1282395088175	0.0975333333333333	1.376266666666667	1.0
815.1280897897772	0.0975333333333333	1.2782666666666669	1.0
814.7370254502482	0.09486666666666663	1.207066666666667	1.0
814.7370254502482	0.09226666666666662	1.207066666666667	1.0
814.7391762578358	0.09886666666666663	1.4150666666666667	1.0
814.7396778843914	0.10396666666666662	1.4677333333333333	1.0
804.8621193397296	0.10269999999999996	1.4444	1.0
814.7370697767994	0.09036666666666662	1.4171999999999998	1.0
814.7370697767994	0.10119999999999996	1.3933333333333333	1.0
814.7370697767994	0.09353333333333329	1.2689333333333335	1.0
814.0479623068037	0.09353333333333329	1.2400000000000002	1.0
813.1652976326617	0.0949333333333333	1.243466666666667	1.0
813.1638668440535	0.1012333333333333	1.3372000000000002	1.0
813.1638668440535	0.1012333333333333	1.3300000000000003	1.0
813.0701307315092	0.10159999999999997	1.3189333333333335	1.0
812.8621824384462	0.10146666666666662	1.3189333333333335	1.0
812.8627111391529	0.09593333333333329	1.3360000000000003	1.0
811.7966993418105	0.10109999999999995	1.3836000000000002	1.0
811.7966993418105	0.10796666666666664	1.3201333333333336	1.0
811.7955929823153	0.09706666666666662	1.3176000000000003	1.0
811.5047932727643	0.09819999999999995	1.1650666666666667	1.0
811.5047932727643	0.09583333333333328	1.16	1.0
811.4091406576772	0.0993333333333333	1.1658666666666666	1.0
811.4091406576772	0.09689999999999996	1.2036000000000002	1.0
811.4080828308588	0.10526666666666662	1.3304000000000002	1.0
811.3096602806119	0.10526666666666662	1.3774666666666668	1.0
811.1100258872468	0.10439999999999997	1.4357333333333335	1.0
811.1098280264152	0.10486666666666662	1.4357333333333335	1.0
811.1098280264152	0.1015333333333333	1.4713333333333332	1.0
811.1098536088616	0.10809999999999997	1.4793333333333332	1.0
810.623312838617	0.09929999999999996	1.4137333333333333	1.0
810.6264743252678	0.10316666666666663	1.3509333333333335	1.0
810.2334934672353	0.10329999999999996	1.3565333333333336	1.0
809.939144977722	0.10359999999999994	1.213066666666667	1.0
809.939144977722	0.0963333333333333	1.2316	1.0
809.449445236503	0.09589999999999996	1.2196	1.0
809.449445236503	0.09666666666666664	1.202666666666667	1.0
809.4534409916548	0.09369999999999995	1.1964000000000004	1.0
807.7336505834802	0.09369999999999995	1.2038666666666669	1.0
807.7336505834802	0.1010333333333333	1.2480000000000002	1.0
807.7336505834802	0.09966666666666661	1.2480000000000002	1.0
808.1978670449699	0.10029999999999996	1.2622666666666669	1.0
808.0991210945476	0.1035333333333333	1.2392	1.0
807.8996975825678	0.10029999999999996	1.2498666666666667	1.0
807.8996975825678	0.1035333333333333	1.3045333333333335	1.0
807.8996975825678	0.1031333333333333	1.2521333333333338	1.0
807.80977323204	0.0964333333333333	1.319066666666667	1.0
807.71543501858	0.09916666666666663	1.3213333333333337	1.0
807.4225364890469	0.10539999999999997	1.3232000000000002	1.0
807.4225364890469	0.09966666666666663	1.2988000000000004	1.0
807.5132599720805	0.09966666666666663	1.265866666666667	1.0
806.9399833008545	0.10076666666666663	1.259466666666667	1.0
806.9400444480098	0.1002333333333333	1.259466666666667	1.0
806.3967937902844	0.09906666666666662	1.3205333333333336	1.0
806.3967937902844	0.09369999999999996	1.1773333333333336	1.0
806.0760476294648	0.09456666666666662	1.245066666666667	1.0
806.0760476294648	0.09439999999999996	1.2385333333333335	1.0
805.5587839254796	0.09996666666666662	1.2113333333333336	1.0
804.9141747634178	0.09626666666666661	1.2124000000000001	1.0
804.8268427018876	0.09689999999999996	1.1821333333333337	1.0
804.8268427018876	0.09686666666666663	1.1990666666666667	1.0
804.7211167829652	0.09663333333333328	1.2506666666666668	1.0
804.6258573512882	0.09873333333333328	1.1990666666666667	1.0
804.4385830228077	0.09873333333333328	1.1564000000000003	1.0
804.4385830228077	0.0958333333333333	1.1662666666666666	1.0
804.4385830228077	0.0948333333333333	1.1662666666666666	1.0
804.3437611630718	0.09273333333333329	1.2069333333333334	1.0
804.382228855165	0.09573333333333331	1.16	1.0
804.0129719986178	0.09746666666666663	1.16	1.0
804.0129719986178	0.09526666666666664	1.1569333333333334	1.0
804.0129719986178	0.09213333333333329	1.1628	1.0
803.3842637429915	0.0954333333333333	1.2573333333333334	1.0
802.9024449968658	0.09219999999999995	1.2337333333333336	1.0
802.9049309805946	0.10276666666666663	1.2565333333333335	1.0
802.7170536342675	0.09563333333333329	1.2586666666666668	1.0
802.7170536342675	0.10089999999999996	1.3193333333333335	1.0
802.968518186042	0.10089999999999996	1.2472	1.0
801.3772084107206	0.10049999999999996	1.16	1.0
801.3760196968003	0.09309999999999995	1.16	1.0
801.3836461043516	0.09626666666666663	1.1624	1.0
801.3836461043516	0.09049999999999994	1.1602666666666668	1.0
801.2818368175791	0.08939999999999995	1.1616	1.0
801.1928000726743	0.09659999999999996	1.2321333333333335	1.0
801.186910606807	0.09719999999999997	1.3216000000000003	1.0
801.1855710998067	0.09616666666666662	1.3577333333333335	1.0
801.1855710998067	0.09179999999999996	1.1898666666666669	1.0
801.0986728293074	0.09576666666666664	1.0997333333333335	1.0
800.9253824427835	0.09223333333333329	1.0890666666666668	1.0
800.9067230681615	0.09223333333333329	1.153066666666667	1.0
800.6253900097175	0.09273333333333329	1.1548000000000003	1.0
800.6253900097175	0.09063333333333329	1.1548000000000003	1.0
800.4266334046516	0.08976666666666663	1.1596000000000002	1.0
800.3406185236068	0.09546666666666662	1.1688	1.0
