wavelength(nm)	flourescence PMT(V)	ti_saph Power (V)	Gain (V)
800.8103750123549	0.0993333333333333	1.2274666666666671	1.0
800.9067651243437	0.09053333333333329	1.1461333333333334	1.0
801.0927846476803	0.09153333333333329	1.0868	1.0
801.0927846476803	0.09153333333333329	1.1485333333333336	1.0
801.191900435681	0.08989999999999997	1.2193333333333336	1.0
801.2827748084317	0.09643333333333329	1.2193333333333336	1.0
801.3749532561544	0.09886666666666663	1.2690666666666668	1.0
801.3749909563841	0.09409999999999996	1.2177333333333336	1.0
801.3749909563841	0.09726666666666661	1.1613333333333336	1.0
801.3749909563841	0.09339999999999997	1.1577333333333335	1.0
802.717624037376	0.09796666666666662	1.1629333333333336	1.0
802.7174021141253	0.10483333333333329	1.3145333333333336	1.0
802.8120081926396	0.10246666666666662	1.3200000000000003	1.0
802.8120081926396	0.09719999999999997	1.2465333333333335	1.0
803.2871364992315	0.09603333333333329	1.2432	1.0
803.7677698679325	0.09603333333333329	1.2992000000000001	1.0
803.7677698679325	0.09916666666666663	1.249066666666667	1.0
804.1492148969546	0.09399999999999994	1.249066666666667	1.0
804.3259220564651	0.10129999999999996	1.1686666666666667	1.0
804.3259220564651	0.09306666666666663	1.1508	1.0
804.3455355749429	0.09333333333333328	1.16	1.0
804.3459723273714	0.09719999999999997	1.16	1.0
804.6710168915524	0.09403333333333329	1.1528	1.0
804.6245845442396	0.0923333333333333	1.120666666666667	1.0
804.6245845442396	0.10273333333333329	1.1597333333333335	1.0
804.6243871483099	0.09933333333333329	1.16	1.0
804.5066489506858	0.09469999999999996	1.1772000000000002	1.0
804.8260333446624	0.09956666666666662	1.198666666666667	1.0
806.0709634043901	0.09956666666666662	1.227066666666667	1.0
806.0709634043901	0.09879999999999996	1.2389333333333334	1.0
805.8731072643698	0.1005333333333333	1.2389333333333334	1.0
806.0733833221088	0.10343333333333331	1.2600000000000002	1.0
806.0733833221088	0.10529999999999996	1.2937333333333336	1.0
806.2616022413796	0.09846666666666662	1.3012000000000004	1.0
806.2616022413796	0.09559999999999995	1.2877333333333334	1.0
807.0308831424148	0.0981333333333333	1.2457333333333334	1.0
807.0309267210412	0.09646666666666662	1.211466666666667	1.0
807.0310211569066	0.09733333333333329	1.2433333333333336	1.0
807.4184682755501	0.09513333333333328	1.1997333333333335	1.0
807.4184682755501	0.09599999999999996	1.1601333333333337	1.0
807.5118912007231	0.09599999999999996	1.1776000000000002	1.0
807.5118912007231	0.09853333333333329	1.2901333333333336	1.0
807.8109888412478	0.10156666666666662	1.2901333333333336	1.0
807.8098883995481	0.10639999999999995	1.362666666666667	1.0
807.8099113742562	0.10223333333333329	1.353866666666667	1.0
807.8099113742562	0.1018333333333333	1.3202666666666667	1.0
808.0048486277049	0.09873333333333328	1.2801333333333336	1.0
808.1035305743904	0.09489999999999994	1.2769333333333335	1.0
808.1047528011568	0.10073333333333329	1.2740000000000002	1.0
808.1036389519713	0.1005333333333333	1.2408000000000001	1.0
808.1036389519713	0.09969999999999997	1.187466666666667	1.0
808.2844663745524	0.08959999999999996	1.1636000000000002	1.0
808.2844663745524	0.08959999999999996	1.3162666666666671	1.0
809.3633179082784	0.10089999999999995	1.3146666666666669	1.0
809.4586670256869	0.0963333333333333	1.3146666666666669	1.0
809.4586670256869	0.09889999999999996	1.249066666666667	1.0
809.4562806303464	0.10346666666666661	1.2133333333333336	1.0
809.9363402340281	0.09796666666666662	1.2422666666666669	1.0
810.236083239289	0.0992333333333333	1.2484000000000004	1.0
810.6256464002428	0.09689999999999996	1.1756000000000002	1.0
810.6256464002428	0.10533333333333329	1.3577333333333335	1.0
811.0653128903243	0.10039999999999996	1.3096000000000003	1.0
811.1077771754585	0.10229999999999996	1.428	1.0
811.108863488932	0.10919999999999996	1.48	1.0
811.1098564129372	0.10466666666666663	1.48	1.0
811.1098564129372	0.10466666666666663	1.4768	1.0
811.3087660242164	0.10253333333333328	1.3814666666666668	1.0
811.4057455948723	0.0972333333333333	1.3814666666666668	1.0
811.401248860732	0.10649999999999996	1.3878666666666668	1.0
811.5000807025743	0.1012333333333333	1.325066666666667	1.0
811.4083352832276	0.09156666666666662	1.1808000000000003	1.0
811.4083352832276	0.09006666666666661	1.1672000000000002	1.0
811.8928797349085	0.09009999999999996	1.16	1.0
811.8020426777267	0.09409999999999996	1.2078666666666666	1.0
807.7112772828661	0.10026666666666662	1.350666666666667	1.0
812.9068428140755	0.09223333333333329	1.3718666666666668	1.0
812.9068428140755	0.09746666666666663	1.3201333333333336	1.0
813.1592516755533	0.09746666666666663	1.3181333333333336	1.0
813.0713054513238	0.09919999999999997	1.3949333333333334	1.0
813.0712768858393	0.09323333333333328	1.3949333333333334	1.0
813.0712768858393	0.10096666666666664	1.4173333333333333	1.0
813.0712768858393	0.0983333333333333	1.3061333333333334	1.0
814.0460634053433	0.09563333333333329	1.2404000000000002	1.0
814.5332356993977	0.0945333333333333	1.2509333333333335	1.0
814.5319085376154	0.10483333333333329	1.392266666666667	1.0
814.5319085376154	0.09939999999999995	1.4012	1.0
814.5319085376154	0.10079999999999996	1.4038666666666666	1.0
814.7391810136969	0.09803333333333329	1.4081333333333332	1.0
814.7373240434996	0.09656666666666663	1.4046666666666665	1.0
814.7382981667444	0.10629999999999996	1.4009333333333334	1.0
815.3167522467016	0.10629999999999996	1.2470666666666668	1.0
815.1335780313977	0.09606666666666663	1.2189333333333336	1.0
815.1335780313977	0.09016666666666663	1.2189333333333336	1.0
815.3188891195484	0.1021333333333333	1.314266666666667	1.0
815.3188891195484	0.09676666666666663	1.3701333333333336	1.0
816.214035584164	0.09286666666666661	1.3633333333333335	1.0
816.8129789246275	0.09696666666666663	1.1829333333333336	1.0
816.8129789246275	0.08873333333333329	1.1604	1.0
816.9526281810053	0.0966333333333333	1.3196000000000003	1.0
817.3980878246731	0.09246666666666663	1.2860000000000003	1.0
817.5361733444228	0.09486666666666664	1.3380000000000003	1.0
817.5372666538472	0.09686666666666663	1.3113333333333337	1.0
817.5372666538472	0.09163333333333329	1.2365333333333335	1.0
817.5372666538472	0.09163333333333329	1.203066666666667	1.0
817.5372666538472	0.08826666666666662	1.203066666666667	1.0
818.1944386038296	0.1011333333333333	1.3356000000000001	1.0
818.2900007352695	0.08999999999999996	1.2497333333333336	1.0
818.2900007352695	0.08616666666666663	1.2337333333333336	1.0
818.292225278829	0.08909999999999994	1.2118666666666669	1.0
818.5902899085812	0.09153333333333329	1.2337333333333336	1.0
818.5945144422797	0.09349999999999997	1.2232	1.0
818.6893674378656	0.08883333333333328	1.2480000000000002	1.0
818.5958391848264	0.09149999999999996	1.3228000000000002	1.0
818.5958391848264	0.09559999999999995	1.3877333333333335	1.0
819.7906870126354	0.09559999999999995	1.337066666666667	1.0
819.7908342961738	0.09046666666666663	1.3445333333333336	1.0
819.7863816949467	0.0901333333333333	1.3445333333333336	1.0
820.5884909238805	0.09639999999999996	1.3696000000000004	1.0
820.5884909238805	0.09469999999999996	1.3501333333333336	1.0
820.5884805703638	0.09013333333333329	1.3344000000000003	1.0
820.7776860925946	0.09263333333333329	1.322266666666667	1.0
820.7776860925946	0.08593333333333329	1.3204000000000002	1.0
821.081138502401	0.09336666666666663	1.3965333333333334	1.0
821.081138502401	0.08813333333333327	1.4524	1.0
821.5806072085489	0.09036666666666662	1.379066666666667	1.0
821.5770300698418	0.09259999999999995	1.4554666666666667	1.0
821.5770300698418	0.09259999999999995	1.4453333333333331	1.0
821.7933425491843	0.08813333333333327	1.4	1.0
821.7933425491843	0.09326666666666664	1.4	1.0
821.891164148951	0.08773333333333329	1.3997333333333335	1.0
821.891164148951	0.08753333333333328	1.3985333333333334	1.0
822.1887950020792	0.08869999999999995	1.3537333333333335	1.0
822.188928025808	0.08656666666666661	1.3200000000000003	1.0
822.1887318381124	0.08913333333333329	1.3200000000000003	1.0
822.1887318381124	0.08733333333333329	1.3120000000000003	1.0
822.484793565723	0.08989999999999997	1.319866666666667	1.0
823.4902064244118	0.08643333333333328	1.3914666666666669	1.0
823.4901306912358	0.08563333333333328	1.4638666666666666	1.0
823.913264636417	0.08779999999999996	1.4770666666666665	1.0
823.913264636417	0.08779999999999996	1.4109333333333332	1.0
823.9961229606628	0.09013333333333329	1.4109333333333332	1.0
824.0961808180149	0.08996666666666663	1.4501333333333333	1.0
824.307569570458	0.08596666666666662	1.3604000000000003	1.0
824.4027352463527	0.08243333333333329	1.3210666666666668	1.0
824.4027352463527	0.08043333333333329	1.2817333333333334	1.0
824.7985497114383	0.08506666666666662	1.3497333333333337	1.0
824.8118641233568	0.08589999999999996	1.4773333333333332	1.0
825.2084229033073	0.08249999999999995	1.3185333333333338	1.0
825.3047323612117	0.09109999999999994	1.4573333333333334	1.0
825.3047323612117	0.08643333333333328	1.5091999999999999	1.0
825.3075000729991	0.08949999999999994	1.5474666666666668	1.0
825.61538287532	0.08949999999999994	1.4784	1.0
825.7153420375238	0.08956666666666663	1.3897333333333335	1.0
825.714801731477	0.07826666666666662	1.3897333333333335	1.0
825.715626703219	0.07966666666666661	1.3557333333333335	1.0
825.715626703219	0.08736666666666662	1.3193333333333335	1.0
825.715626703219	0.08246666666666663	1.3514666666666668	1.0
826.5272267516086	0.08183333333333327	1.4594666666666667	1.0
826.8348177868072	0.08406666666666661	1.3208000000000004	1.0
827.0323786892815	0.08036666666666661	1.3534666666666668	1.0
827.0323786892815	0.07779999999999997	1.389466666666667	1.0
827.3333883153539	0.08353333333333329	1.3769333333333336	1.0
827.3394350401429	0.08216666666666661	1.3420000000000003	1.0
827.7497969963061	0.08216666666666661	1.4170666666666667	1.0
827.9474128460132	0.08626666666666663	1.4759999999999998	1.0
827.9474128460132	0.08126666666666663	1.4759999999999998	1.0
828.045840646981	0.08116666666666662	1.48	1.0
828.6561867019205	0.08123333333333328	1.4811999999999999	1.0
828.6572960478936	0.07796666666666661	1.372	1.0
828.6572960478936	0.0795666666666666	1.3217333333333336	1.0
828.6572960478936	0.07646666666666661	1.4130666666666665	1.0
829.2722659558449	0.07889999999999996	1.48	1.0
829.2734134332251	0.08069999999999995	1.3430666666666669	1.0
829.4736709896171	0.08456666666666662	1.4229333333333334	1.0
829.4719834336736	0.08099999999999996	1.4770666666666667	1.0
829.4756443554811	0.08269999999999995	1.4033333333333333	1.0
829.4756443554811	0.08269999999999995	1.3349333333333333	1.0
829.8894064166716	0.07559999999999995	1.4639999999999997	1.0
829.988487065829	0.08196666666666662	1.4639999999999997	1.0
830.3968894266293	0.07883333333333328	1.4769333333333332	1.0
830.491891477079	0.08086666666666661	1.4828	1.0
830.491891477079	0.07626666666666662	1.5281333333333336	1.0
830.9056109439194	0.08276666666666661	1.3716000000000002	1.0
831.2130345578219	0.08016666666666662	1.3420000000000003	1.0
831.2114245064029	0.07723333333333329	1.3733333333333337	1.0
831.2114245064029	0.08359999999999995	1.4028	1.0
831.2114245064029	0.08686666666666663	1.4938666666666665	1.0
831.5264037151018	0.07943333333333329	1.4705333333333332	1.0
831.5264037151018	0.07943333333333329	1.4051999999999998	1.0
831.9329692375279	0.07996666666666663	1.3880000000000003	1.0
832.2401786462497	0.07829999999999995	1.3880000000000003	1.0
832.2401786462497	0.08209999999999996	1.4594666666666665	1.0
832.2401786462497	0.07903333333333329	1.4589333333333334	1.0
832.6509606088387	0.08533333333333329	1.48	1.0
832.9595472382902	0.08266666666666662	1.3993333333333333	1.0
832.9599108473651	0.08996666666666661	1.3976	1.0
832.9535111202605	0.0857333333333333	1.4	1.0
832.9535111202605	0.08643333333333328	1.3983999999999999	1.0
833.3758907455867	0.09076666666666662	1.4425333333333332	1.0
833.3778172586594	0.0923333333333333	1.4801333333333333	1.0
833.3778298046524	0.0923333333333333	1.482	1.0
833.8864628924118	0.09413333333333329	1.3932000000000002	1.0
833.8864628924118	0.10156666666666662	1.3932000000000002	1.0
833.8926879534276	0.0969333333333333	1.2309333333333337	1.0
834.2019244253066	0.10703333333333329	1.2393333333333336	1.0
834.2994176927646	0.11669999999999997	1.1274666666666666	1.0
834.50740435257	0.10473333333333329	0.9232000000000001	1.0
834.50740435257	0.10473333333333329	0.9232000000000001	1.0
834.7119604031581	0.10473333333333329	0.9232000000000001	1.0
835.0664193974536	0.10473333333333329	0.9232000000000001	1.0
835.3302826086082	0.06163333333333327	0.055200000000000055	1.0
835.06879965965	0.05796666666666661	0.005200000000000005	1.0
835.06879965965	0.053633333333333276	-0.013733333333333346	1.0
835.6508933701291	0.05589999999999994	-0.025733333333333355	1.0
836.0699265583961	0.05159999999999994	-0.028000000000000025	1.0
836.065817065485	0.05109999999999994	-0.02200000000000002	1.0
836.2718742088048	0.05353333333333327	-0.02813333333333336	1.0
836.6878547218043	0.05353333333333327	-0.028800000000000027	1.0
836.6878547218043	0.05573333333333328	-0.028800000000000027	1.0
836.79296885025	0.05353333333333327	-0.028800000000000027	1.0
836.9765071291513	0.0539666666666666	-0.02746666666666669	1.0
836.9991350853775	0.055499999999999945	-0.029066666666666692	1.0
836.9990091502774	0.05739999999999994	-0.030000000000000023	1.0
836.9990091502774	0.0505666666666666	-0.024933333333333356	1.0
837.5246732011651	0.05649999999999994	-0.030000000000000023	1.0
837.7230237363711	0.054533333333333274	-0.028933333333333356	1.0
837.7309157250359	0.058266666666666606	-0.030666666666666693	1.0
837.7230908738728	0.05129999999999993	-0.029200000000000028	1.0
837.7230908738728	0.05629999999999994	-0.026400000000000024	1.0
838.250684524258	0.05629999999999994	-0.026933333333333358	1.0
838.4527836473079	0.054533333333333274	-0.026400000000000024	1.0
838.4529804384696	0.052666666666666605	-0.026400000000000024	1.0
838.9360920011445	0.0523666666666666	-0.026933333333333358	1.0
838.9360920011445	0.05373333333333328	-0.026933333333333358	1.0
839.084934674269	0.053899999999999934	-0.03093333333333336	1.0
839.4029604310483	0.0515666666666666	-0.02546666666666669	1.0
839.4036604057121	0.05309999999999994	-0.026400000000000024	1.0
840.0213627772077	0.051533333333333264	-0.02626666666666669	1.0
840.3450994496579	0.055066666666666604	-0.025733333333333355	1.0
840.3450994496579	0.05273333333333327	-0.026400000000000024	1.0
840.4438142411271	0.05563333333333328	-0.02520000000000002	1.0
840.4439774981294	0.05563333333333328	-0.02680000000000002	1.0
840.8638708789872	0.05089999999999993	-0.02813333333333336	1.0
840.8674069978631	0.05559999999999994	-0.02813333333333336	1.0
840.8674069978631	0.056333333333333284	-0.028000000000000025	1.0
840.8646309113034	0.05369999999999994	-0.02546666666666669	1.0
841.1816407534824	0.05346666666666661	-0.02813333333333336	1.0
841.1816407534824	0.05279999999999994	-0.030533333333333357	1.0
841.6031226788219	0.056233333333333274	-0.02786666666666669	1.0
841.6031226788219	0.0536666666666666	-0.027200000000000023	1.0
841.4584332618136	0.05293333333333327	-0.02680000000000002	1.0
841.7073439877468	0.05646666666666661	-0.03080000000000003	1.0
841.705968640728	0.04923333333333327	-0.02626666666666669	1.0
842.3361813157024	0.04923333333333327	-0.02786666666666669	1.0
842.3361813157024	0.05516666666666661	-0.024933333333333356	1.0
842.652907721417	0.05243333333333327	-0.024933333333333356	1.0
842.7655124561802	0.05259999999999994	-0.028000000000000025	1.0
843.0782522964427	0.055733333333333274	-0.025333333333333357	1.0
843.543988512203	0.0524666666666666	-0.025600000000000022	1.0
843.3922111840648	0.0523666666666666	-0.028000000000000025	1.0
843.3922111840648	0.05233333333333327	-0.028000000000000025	1.0
844.3496552608407	0.05753333333333328	-0.029600000000000026	1.0
844.3492817888574	0.05309999999999994	-0.02853333333333336	1.0
844.5560012720541	0.055933333333333266	-0.02746666666666669	1.0
844.6679870726979	0.051299999999999936	-0.026533333333333357	1.0
844.6679870726979	0.051299999999999936	-0.029600000000000026	1.0
844.6679870726979	0.05313333333333327	-0.02813333333333336	1.0
844.8708314115156	0.051533333333333264	-0.02813333333333336	1.0
844.9768649597437	0.0537666666666666	-0.02786666666666669	1.0
840.8674677171216	0.05159999999999994	-0.029066666666666692	1.0
840.4485158475306	0.05233333333333327	-0.028000000000000025	1.0
840.4485158475306	0.05133333333333327	-0.02973333333333336	1.0
840.4458863491751	0.053733333333333265	-0.026133333333333356	1.0
840.1981702536257	0.053733333333333265	-0.028400000000000022	1.0
839.8147894976779	0.052999999999999936	-0.026000000000000023	1.0
839.4048943840301	0.05706666666666661	-0.026000000000000023	1.0
839.4048943840301	0.0546666666666666	-0.028666666666666694	1.0
839.3011945288113	0.0548666666666666	-0.026000000000000023	1.0
839.0848626343736	0.052166666666666604	-0.02853333333333336	1.0
838.8789132668848	0.05043333333333327	-0.02666666666666669	1.0
838.6679757933668	0.05209999999999993	-0.02626666666666669	1.0
838.6679757933668	0.05479999999999993	-0.028266666666666693	1.0
838.1442554252693	0.05386666666666661	-0.027066666666666694	1.0
838.1475732021257	0.05126666666666661	-0.02746666666666669	1.0
838.1443933989173	0.053133333333333276	-0.028666666666666694	1.0
837.7278450469187	0.053133333333333276	-0.028266666666666693	1.0
837.7295435392084	0.05109999999999994	-0.029066666666666692	1.0
837.7295435392084	0.05233333333333327	-0.029066666666666692	1.0
837.7295435392084	0.052699999999999934	-0.029200000000000028	1.0
837.3106087127546	0.05133333333333327	-0.029200000000000028	1.0
837.1071519401669	0.054366666666666605	-0.028666666666666694	1.0
837.1056775463186	0.05216666666666661	-0.02853333333333336	1.0
837.1056775463186	0.05339999999999994	-0.02666666666666669	1.0
836.785967941703	0.05106666666666661	-0.028933333333333356	1.0
836.6872034362676	0.052833333333333274	-0.028266666666666693	1.0
836.581482395911	0.05209999999999994	-0.024666666666666687	1.0
836.271869036126	0.05449999999999993	-0.025333333333333357	1.0
836.271869036126	0.05449999999999993	-0.024666666666666687	1.0
835.7539862354191	0.05139999999999993	-0.024666666666666687	1.0
836.0576633211759	0.05339999999999994	-0.02680000000000002	1.0
835.6509689132561	0.05189999999999994	-0.02666666666666669	1.0
835.4423888324817	0.05326666666666661	-0.02586666666666669	1.0
835.4423888324817	0.05723333333333327	-0.02040000000000002	1.0
835.2345479188763	0.0574666666666666	0.0017333333333333348	1.0
835.0377014560464	0.06233333333333327	0.030533333333333357	1.0
834.7173182299448	0.07273333333333329	0.13186666666666677	1.0
834.7128998636981	0.08429999999999994	0.2926666666666669	1.0
834.7128998636981	0.08939999999999995	0.5342666666666668	1.0
834.2996645849328	0.1101333333333333	1.0497333333333332	1.0
834.3041290498682	0.1101333333333333	1.1452	1.0
833.9928188997524	0.10629999999999995	1.1452	1.0
833.89135906826	0.1037333333333333	1.2581333333333335	1.0
833.3758693919945	0.10096666666666664	1.2977333333333334	1.0
833.3758693919945	0.09816666666666662	1.4114666666666669	1.0
833.3758693919945	0.09729999999999996	1.4806666666666666	1.0
833.3759096628216	0.10123333333333329	1.5112	1.0
832.9574500399684	0.09493333333333329	1.4822666666666666	1.0
832.9588503695967	0.09056666666666663	1.3958666666666666	1.0
832.9588503695967	0.08579999999999996	1.4002666666666665	1.0
832.7507787579951	0.08339999999999996	1.3852000000000002	1.0
832.7507787579951	0.08629999999999996	1.4129333333333334	1.0
832.5496782266325	0.08629999999999996	1.48	1.0
831.7319263507684	0.08963333333333329	1.4749333333333334	1.0
831.7319263507684	0.08276666666666663	1.4749333333333334	1.0
831.7319263507684	0.07739999999999995	1.3969333333333334	1.0
831.7263406174623	0.08329999999999996	1.3905333333333336	1.0
831.5263662297502	0.08036666666666661	1.4052	1.0
831.1152359374556	0.08393333333333329	1.5360000000000003	1.0
831.1152359374556	0.08099999999999995	1.4069333333333334	1.0
830.9024232005594	0.0795666666666666	1.343866666666667	1.0
830.5923452492389	0.0799333333333333	1.3652000000000002	1.0
830.4941171782111	0.08409999999999995	1.4721333333333333	1.0
830.3930375107417	0.08236666666666662	1.48	1.0
829.9852483925079	0.08236666666666662	1.4801333333333333	1.0
829.9852483925079	0.08329999999999996	1.4265333333333332	1.0
829.8843881665554	0.08186666666666663	1.4265333333333332	1.0
829.8839822479837	0.08139999999999996	1.4798666666666667	1.0
829.4756226114935	0.07596666666666661	1.4481333333333333	1.0
829.3791226242308	0.0822333333333333	1.372266666666667	1.0
829.3791226242308	0.08066666666666662	1.45	1.0
829.272158351325	0.08116666666666662	1.48	1.0
829.2643267689614	0.08149999999999996	1.4096	1.0
828.6593197671059	0.07683333333333328	1.3284000000000002	1.0
828.6567506245376	0.08236666666666662	1.3894666666666668	1.0
828.6567506245376	0.07733333333333328	1.3233333333333337	1.0
828.5595424690173	0.07733333333333328	1.3901333333333337	1.0
828.2566503092369	0.0808333333333333	1.4704	1.0
828.2566503092369	0.08476666666666662	1.4704	1.0
827.7498131626076	0.08023333333333328	1.48	1.0
827.7498095189073	0.08206666666666661	1.4802666666666666	1.0
827.7498095189073	0.08366666666666663	1.48	1.0
827.7498095189073	0.07839999999999996	1.3933333333333333	1.0
827.0315100137016	0.0840333333333333	1.3982666666666668	1.0
826.9327356096886	0.07593333333333328	1.3904000000000003	1.0
826.5263235663202	0.07996666666666663	1.3986666666666667	1.0
826.5263235663202	0.08109999999999995	1.3469333333333338	1.0
826.42315129169	0.08439999999999995	1.47	1.0
825.719896923263	0.08539999999999996	1.4814666666666665	1.0
825.7125943139862	0.08539999999999996	1.3340000000000003	1.0
825.615418820275	0.08849999999999997	1.4071999999999998	1.0
825.615418820275	0.08476666666666662	1.4071999999999998	1.0
825.615418820275	0.08393333333333329	1.4624	1.0
825.408009597631	0.09123333333333329	1.4801333333333333	1.0
825.3085172815839	0.08579999999999996	1.4801333333333333	1.0
825.3096120075486	0.08533333333333329	1.5353333333333334	1.0
825.3096120075486	0.08913333333333329	1.4805333333333333	1.0
824.7988423225465	0.0874333333333333	1.4561333333333333	1.0
824.4053432853311	0.08109999999999995	1.4696	1.0
824.4053432853311	0.08496666666666662	1.2910666666666668	1.0
824.3060379108645	0.08613333333333328	1.3125333333333338	1.0
824.3060379108645	0.08613333333333328	1.3942666666666668	1.0
824.3060379108645	0.08966666666666662	1.3946666666666665	1.0
823.997039385492	0.08636666666666662	1.3946666666666665	1.0
823.997039385492	0.08536666666666662	1.4258666666666666	1.0
823.5001501363996	0.0893333333333333	1.4697333333333331	1.0
823.4972357619796	0.09109999999999996	1.48	1.0
823.4972357619796	0.08876666666666662	1.48	1.0
822.1957981644701	0.08779999999999995	1.4049333333333334	1.0
822.1934871091102	0.0905333333333333	1.3444000000000003	1.0
822.2929738158246	0.0880333333333333	1.3201333333333336	1.0
822.1911883895583	0.08933333333333329	1.3212000000000002	1.0
822.1911883895583	0.08966666666666663	1.3257333333333337	1.0
821.891468299443	0.09036666666666662	1.4057333333333335	1.0
821.7473295365373	0.09036666666666662	1.4005333333333334	1.0
821.7913827525664	0.09206666666666663	1.4002666666666668	1.0
821.7915230657078	0.09089999999999997	1.4002666666666668	1.0
821.2957075151725	0.08473333333333329	1.3996	1.0
821.2957075151725	0.08956666666666663	1.4790666666666668	1.0
821.0855232699356	0.09316666666666663	1.4793333333333332	1.0
821.0828175996622	0.09129999999999995	1.478	1.0
820.8241581908547	0.08879999999999995	1.4494666666666665	1.0
820.4923740718823	0.09176666666666662	1.3252000000000002	1.0
820.4923740718823	0.09173333333333329	1.3772000000000002	1.0
820.5866442890587	0.09739999999999994	1.3970666666666667	1.0
819.7906455482741	0.09509999999999996	1.3517333333333337	1.0
819.7876091148298	0.08989999999999997	1.3876000000000004	1.0
818.6923181086797	0.08989999999999997	1.3802666666666668	1.0
818.6923181086797	0.09343333333333328	1.3802666666666668	1.0
818.5958929010741	0.09433333333333328	1.3734666666666668	1.0
818.6893314077852	0.09279999999999997	1.3260000000000003	1.0
818.6893314077852	0.0876333333333333	1.3161333333333336	1.0
818.4956331796068	0.0904333333333333	1.2865333333333335	1.0
818.4956331796068	0.09003333333333328	1.2733333333333337	1.0
818.2920904261383	0.09079999999999996	1.2332	1.0
818.2920904261383	0.08686666666666663	1.2384000000000004	1.0
818.1951185526931	0.0923333333333333	1.2940000000000003	1.0
817.7971666625564	0.09556666666666662	1.2732000000000003	1.0
817.7971666625564	0.09556666666666662	1.1856000000000002	1.0
817.4050717055079	0.08676666666666662	1.329466666666667	1.0
817.4018378599817	0.09166666666666662	1.329466666666667	1.0
816.9078154132034	0.09643333333333329	1.3709333333333336	1.0
816.8137035105638	0.09889999999999996	1.3241333333333336	1.0
816.8137035105638	0.09849999999999996	1.3212000000000002	1.0
816.2065116284945	0.09529999999999997	1.223466666666667	1.0
816.208653644924	0.08896666666666662	1.1602666666666668	1.0
815.320282806918	0.09426666666666662	1.343466666666667	1.0
815.1289115575446	0.09519999999999997	1.3998666666666668	1.0
815.1289115575446	0.09946666666666663	1.3620000000000003	1.0
815.3250573759037	0.09333333333333328	1.191066666666667	1.0
814.7394608514818	0.09333333333333328	1.355066666666667	1.0
814.7382929220769	0.09749999999999996	1.4662666666666666	1.0
814.7382929220769	0.09939999999999995	1.4662666666666666	1.0
814.7395435513747	0.10193333333333329	1.4669333333333332	1.0
814.7395435513747	0.10099999999999996	1.4350666666666667	1.0
814.5364101078668	0.09836666666666662	1.3966666666666667	1.0
814.5364101078668	0.0994333333333333	1.3665333333333336	1.0
814.0447750547717	0.0989333333333333	1.241466666666667	1.0
813.6505093890465	0.09746666666666663	1.2536	1.0
813.6505093890465	0.10346666666666661	1.3289333333333335	1.0
813.0702004096086	0.10496666666666662	1.3948	1.0
813.070269349902	0.10146666666666662	1.3254666666666668	1.0
813.0702744042472	0.10146666666666662	1.2613333333333336	1.0
812.6737312514052	0.09499999999999996	1.2757333333333336	1.0
812.6737312514052	0.09413333333333329	1.2757333333333336	1.0
812.6760106305538	0.09853333333333329	1.3818666666666668	1.0
811.8030125956795	0.10439999999999995	1.3317333333333337	1.0
811.5007656248653	0.09779999999999997	1.3201333333333336	1.0
811.5036101523704	0.09923333333333328	1.2764000000000002	1.0
811.5036101523704	0.09469999999999995	1.1861333333333335	1.0
811.4091842784703	0.09906666666666662	1.2965333333333335	1.0
811.4080786094993	0.10209999999999995	1.3124000000000005	1.0
811.4092747169675	0.10339999999999996	1.3232000000000004	1.0
811.1100544166935	0.10226666666666663	1.3901333333333334	1.0
811.1100544166935	0.10253333333333328	1.4752	1.0
811.1127836570239	0.10253333333333328	1.48	1.0
811.1076425405021	0.10559999999999996	1.48	1.0
811.1108386066626	0.10833333333333328	1.48	1.0
810.6268966894378	0.10646666666666663	1.4062666666666666	1.0
810.2341174542129	0.10429999999999998	1.3708000000000002	1.0
810.2341174542129	0.10243333333333329	1.3197333333333336	1.0
810.0721067281186	0.09323333333333328	1.217466666666667	1.0
810.0721067281186	0.09903333333333329	1.2449333333333337	1.0
810.0721067281186	0.09839999999999996	1.2577333333333336	1.0
809.4536368404478	0.09916666666666663	1.1753333333333333	1.0
809.4536368404478	0.09593333333333329	1.1808000000000003	1.0
809.4547787129653	0.09879999999999997	1.1993333333333336	1.0
808.199027162791	0.09879999999999997	1.2385333333333335	1.0
808.1927826698738	0.0998333333333333	1.245466666666667	1.0
808.1965805540476	0.09559999999999996	1.245466666666667	1.0
808.1965805540476	0.10116666666666663	1.2274666666666667	1.0
808.0983738245716	0.0948333333333333	1.2513333333333336	1.0
807.8980472194386	0.09709999999999996	1.2573333333333334	1.0
807.8055396320273	0.09863333333333328	1.2433333333333336	1.0
807.8998564518824	0.10436666666666662	1.2772000000000003	1.0
807.8998564518824	0.10393333333333328	1.321866666666667	1.0
807.8998564518824	0.10309999999999997	1.34	1.0
807.6155029940201	0.10186666666666663	1.2664000000000002	1.0
807.4265055181437	0.09196666666666663	1.1606666666666667	1.0
807.035489720455	0.09196666666666663	1.1761333333333335	1.0
807.035489720455	0.09439999999999996	1.3156	1.0
806.9402606700344	0.10326666666666663	1.3156	1.0
806.7546342294482	0.09846666666666665	1.3317333333333337	1.0
806.0754670673641	0.10236666666666663	1.249866666666667	1.0
806.0734075956673	0.09726666666666661	1.2541333333333333	1.0
805.7810023267992	0.09876666666666663	1.2329333333333337	1.0
805.7810023267992	0.09419999999999996	1.2356000000000003	1.0
805.7794421165114	0.1011333333333333	1.2068	1.0
804.820279730058	0.09529999999999997	1.2010666666666667	1.0
804.6286653377244	0.09609999999999996	1.2236000000000002	1.0
804.624606603987	0.09589999999999996	1.1694666666666669	1.0
804.624606603987	0.09589999999999996	1.16	1.0
804.4414453607061	0.09516666666666662	1.152666666666667	1.0
804.4392692179483	0.09793333333333329	1.152666666666667	1.0
804.4382774810379	0.09896666666666663	1.1654666666666669	1.0
804.4382774810379	0.09423333333333328	1.1601333333333335	1.0
804.4382774810379	0.09846666666666663	1.1602666666666668	1.0
804.3469349661235	0.09399999999999996	1.1813333333333336	1.0
804.0574838983991	0.09826666666666663	1.1646666666666667	1.0
803.6715148675373	0.09533333333333328	1.1713333333333333	1.0
802.9048053095586	0.09726666666666661	1.2016	1.0
802.9048053095586	0.09786666666666662	1.2033333333333336	1.0
802.9048053095586	0.09399999999999996	1.2914666666666668	1.0
802.7158049921887	0.10033333333333329	1.3201333333333336	1.0
802.721091527219	0.10033333333333329	1.3200000000000003	1.0
802.3360292729232	0.10429999999999996	1.1932	1.0
802.3360292729232	0.09866666666666662	1.1932	1.0
801.3763858823614	0.0928333333333333	1.1636000000000002	1.0
801.2816406383894	0.09506666666666663	1.1601333333333337	1.0
801.2836781547168	0.09499999999999996	1.1896000000000002	1.0
801.1912193546432	0.09616666666666662	1.2334666666666667	1.0
801.1869506186637	0.09763333333333328	1.2801333333333336	1.0
801.1869506186637	0.0974333333333333	1.2629333333333337	1.0
801.1019159866561	0.09076666666666663	1.1482666666666668	1.0
801.0932664286727	0.08856666666666663	1.0792	1.0
801.0932664286727	0.08549999999999996	1.0793333333333335	1.0
800.8132408565638	0.08549999999999996	1.1176000000000001	1.0
800.8132408565638	0.09116666666666662	1.16	1.0
800.8135413160992	0.08916666666666662	1.16	1.0
800.3347839255359	0.09236666666666662	1.151066666666667	1.0
800.3389105131396	0.08949999999999995	1.1593333333333335	1.0
