wavelength(nm)	flourescence PMT(V)	ti_saph Power (V)	Gain (V)
800.3350673200093	0.09179999999999996	1.1589333333333336	1.0
800.3350673200093	0.08719999999999996	1.1250666666666669	1.0
800.9035703824303	0.09019999999999996	1.1481333333333335	1.0
800.9048149177528	0.09533333333333328	1.1389333333333336	1.0
800.8127824624413	0.08763333333333329	1.0842666666666665	1.0
801.1879430067149	0.08486666666666662	1.0837333333333334	1.0
801.1879430067149	0.0918333333333333	1.1022666666666665	1.0
801.0975228101926	0.09203333333333329	1.1121333333333334	1.0
801.1930693053737	0.09203333333333329	1.2053333333333334	1.0
801.4231661941581	0.10219999999999996	1.3072000000000004	1.0
801.1936205034596	0.10076666666666662	1.3072000000000004	1.0
801.1936205034596	0.0988333333333333	1.2652	1.0
801.3773357453075	0.09113333333333329	1.1672	1.0
801.2573948808524	0.09389999999999996	1.16	1.0
802.7213209402689	0.09466666666666662	1.1605333333333336	1.0
802.7225375085716	0.09366666666666662	1.1600000000000001	1.0
802.7225375085716	0.09926666666666663	1.290266666666667	1.0
802.7213861180857	0.09746666666666663	1.3204000000000005	1.0
802.6928743528698	0.10079999999999996	1.3184000000000002	1.0
803.4854889622565	0.0948333333333333	1.2176	1.0
803.9627411769042	0.0948333333333333	1.2825333333333335	1.0
803.9627411769042	0.09959999999999997	1.3200000000000003	1.0
804.147550209018	0.10046666666666662	1.3200000000000003	1.0
804.2414445884821	0.09783333333333329	1.2365333333333335	1.0
804.3452719655456	0.09839999999999996	1.1796000000000002	1.0
804.3452719655456	0.09253333333333329	1.1897333333333335	1.0
804.3452719655456	0.09276666666666661	1.1600000000000001	1.0
804.4383938086467	0.09099999999999997	1.1600000000000001	1.0
804.4383391411654	0.0910333333333333	1.1598666666666668	1.0
804.6269231816802	0.09403333333333329	1.1601333333333337	1.0
804.679286977183	0.09426666666666662	1.1604	1.0
804.679286977183	0.09566666666666662	1.1648000000000003	1.0
804.8630532402497	0.09566666666666662	1.2065333333333335	1.0
804.7200800635171	0.09433333333333328	1.2269333333333334	1.0
806.0707644029854	0.09359999999999997	1.2269333333333334	1.0
806.0707644029854	0.09996666666666662	1.2688000000000004	1.0
806.0707644029854	0.10239999999999995	1.2664000000000002	1.0
806.075418778605	0.10779999999999997	1.3162666666666671	1.0
806.3577945018574	0.09843333333333329	1.315466666666667	1.0
806.8415650158545	0.09306666666666663	1.249066666666667	1.0
807.031052287804	0.09616666666666662	1.2241333333333335	1.0
807.031052287804	0.09639999999999996	1.2685333333333335	1.0
807.4212341458312	0.0955333333333333	1.2269333333333334	1.0
807.7147202392644	0.09966666666666663	1.1602666666666668	1.0
807.7147202392644	0.09966666666666663	1.1608000000000003	1.0
807.8098250468034	0.09696666666666663	1.2109333333333336	1.0
807.8098250468034	0.09539999999999996	1.2109333333333336	1.0
807.7147378992091	0.09893333333333329	1.3053333333333337	1.0
807.8089956889673	0.1042333333333333	1.3210666666666668	1.0
807.9085123839709	0.09959999999999997	1.3200000000000003	1.0
807.9970318248946	0.09866666666666662	1.3072000000000004	1.0
807.9970318248946	0.09729999999999997	1.2564000000000002	1.0
808.1042147162842	0.0949333333333333	1.2852000000000001	1.0
808.2853309691111	0.09649999999999996	1.2354666666666667	1.0
808.2923031216219	0.09749999999999995	1.1602666666666668	1.0
808.2923031216219	0.09916666666666663	1.168	1.0
808.2923031216219	0.09916666666666663	1.3204000000000002	1.0
809.3655924280844	0.09586666666666663	1.3212000000000002	1.0
809.4995503301116	0.09969999999999996	1.3212000000000002	1.0
809.3633870073694	0.09686666666666663	1.2857333333333334	1.0
809.4536848692911	0.10089999999999995	1.2829333333333335	1.0
809.4536848692911	0.09413333333333329	1.2333333333333336	1.0
809.9378727909202	0.10179999999999996	1.2364000000000002	1.0
810.2356497338254	0.09146666666666663	1.225466666666667	1.0
810.6279002739078	0.0949333333333333	1.204666666666667	1.0
810.6193974590308	0.10056666666666662	1.3690666666666667	1.0
810.6193974590308	0.10613333333333327	1.3972	1.0
810.7193495884717	0.10339999999999996	1.3840000000000001	1.0
811.106736698656	0.10296666666666662	1.4775999999999998	1.0
811.106736698656	0.10296666666666662	1.4802666666666666	1.0
811.1076970550122	0.1076666666666666	1.4801333333333333	1.0
811.1076970550122	0.09906666666666662	1.4801333333333333	1.0
811.4092355280529	0.10309999999999997	1.48	1.0
811.4048865016332	0.10213333333333328	1.4334666666666664	1.0
811.4981137790992	0.10106666666666662	1.3257333333333337	1.0
811.499868202344	0.09689999999999996	1.2046666666666668	1.0
811.499868202344	0.09569999999999995	1.1656000000000002	1.0
811.499355723598	0.09533333333333328	1.16	1.0
811.8020869962568	0.0939333333333333	1.1601333333333335	1.0
811.8000266132472	0.09883333333333329	1.1876000000000002	1.0
812.6792084404049	0.09926666666666663	1.3458666666666668	1.0
812.6792084404049	0.09926666666666663	1.3868	1.0
812.8615363687693	0.0976333333333333	1.3429333333333335	1.0
813.07003313426	0.09703333333333329	1.3429333333333335	1.0
813.1614389921592	0.09859999999999995	1.317066666666667	1.0
813.1614523410202	0.09463333333333329	1.3760000000000003	1.0
813.1614523410202	0.09613333333333328	1.4012	1.0
813.1614523410202	0.10286666666666663	1.3148000000000002	1.0
814.0468372197715	0.09456666666666663	1.2405333333333337	1.0
814.5321894518243	0.09726666666666661	1.3100000000000003	1.0
814.5335635635043	0.09593333333333329	1.3933333333333333	1.0
814.738358708817	0.09626666666666663	1.4196	1.0
814.738358708817	0.09513333333333329	1.4666666666666666	1.0
814.7414609339315	0.09513333333333329	1.4407999999999999	1.0
814.7383815183323	0.09643333333333329	1.4710666666666665	1.0
814.739293500781	0.09766666666666662	1.4710666666666665	1.0
815.1314377169862	0.09636666666666661	1.4048000000000003	1.0
815.1314377169862	0.09459999999999996	1.2500000000000004	1.0
815.3214437852782	0.09859999999999997	1.3070666666666668	1.0
815.3244502273211	0.10043333333333329	1.3792000000000004	1.0
816.2221411845873	0.09586666666666663	1.3673333333333337	1.0
816.2221411845873	0.08859999999999996	1.229066666666667	1.0
816.2089110266513	0.09336666666666663	1.1604	1.0
816.2089110266513	0.09306666666666663	1.2400000000000002	1.0
816.9044715323123	0.09339999999999997	1.3397333333333337	1.0
817.3079040964686	0.09299999999999996	1.3200000000000003	1.0
817.402379498114	0.09299999999999996	1.3425333333333336	1.0
817.402379498114	0.09739999999999994	1.3261333333333336	1.0
817.5405324097156	0.09569999999999997	1.3261333333333336	1.0
817.7939715240908	0.09586666666666663	1.2428000000000003	1.0
817.7939715240908	0.08686666666666663	1.2304000000000004	1.0
818.291299812857	0.09399999999999996	1.2897333333333336	1.0
818.291299812857	0.08606666666666662	1.3200000000000003	1.0
818.2922851431475	0.09153333333333329	1.2873333333333334	1.0
818.2925237585675	0.09239999999999995	1.2164000000000001	1.0
818.4979034481107	0.08979999999999995	1.3162666666666671	1.0
818.4979104099757	0.09569999999999995	1.3113333333333337	1.0
818.4979104099757	0.09266666666666662	1.2677333333333336	1.0
818.5934433784395	0.09266666666666662	1.2768000000000002	1.0
818.5934433784395	0.09263333333333329	1.3730666666666669	1.0
819.3915254606449	0.09279999999999995	1.3730666666666669	1.0
819.7883840400262	0.09343333333333328	1.3734666666666668	1.0
819.7883840400262	0.08706666666666663	1.3874666666666666	1.0
819.7918682312298	0.0929333333333333	1.3801333333333337	1.0
820.5902231044045	0.08833333333333329	1.3461333333333336	1.0
820.5908959690619	0.09143333333333328	1.3377333333333334	1.0
820.6852622102094	0.09069999999999996	1.3202666666666667	1.0
820.6852622102094	0.08836666666666662	1.3204000000000002	1.0
821.090328856047	0.08803333333333328	1.4001333333333335	1.0
821.0892875672322	0.08886666666666664	1.4301333333333333	1.0
821.3866581603413	0.08839999999999996	1.4213333333333333	1.0
821.7933278890555	0.08839999999999996	1.48	1.0
821.7933278890555	0.0903333333333333	1.48	1.0
821.8864248802054	0.09473333333333328	1.4802666666666668	1.0
821.8864248802054	0.08856666666666663	1.48	1.0
821.8873133708607	0.08776666666666663	1.4172	1.0
822.1943634040916	0.08926666666666662	1.393866666666667	1.0
822.1943634040916	0.08813333333333329	1.3201333333333336	1.0
822.1905530501642	0.08406666666666662	1.3197333333333336	1.0
822.1905530501642	0.08633333333333329	1.2952000000000001	1.0
822.691586129731	0.08623333333333329	1.3204000000000005	1.0
823.4992260695963	0.08963333333333329	1.4510666666666667	1.0
823.4992260695963	0.08056666666666662	1.4637333333333333	1.0
823.4950035299842	0.08056666666666662	1.4751999999999998	1.0
823.9974931800766	0.08579999999999996	1.4567999999999999	1.0
824.0958380510036	0.08849999999999995	1.4567999999999999	1.0
824.3074746080339	0.08709999999999996	1.4424	1.0
824.3074746080339	0.08623333333333329	1.378266666666667	1.0
824.4000182622424	0.08566666666666663	1.3577333333333335	1.0
824.4020851111702	0.08719999999999996	1.3185333333333336	1.0
824.8059777949674	0.08543333333333329	1.3369333333333335	1.0
825.2085339992974	0.08216666666666661	1.4501333333333333	1.0
825.2085339992974	0.08506666666666662	1.4104	1.0
825.3076498422631	0.08333333333333329	1.48	1.0
825.4037402868487	0.0843333333333333	1.4796	1.0
825.3077683768769	0.0843333333333333	1.4906666666666668	1.0
825.616322745525	0.0874333333333333	1.48	1.0
825.616322745525	0.08219999999999995	1.48	1.0
825.6182212156307	0.08283333333333329	1.4745333333333333	1.0
825.7138114903732	0.08433333333333327	1.4361333333333333	1.0
825.714810110344	0.08599999999999995	1.3517333333333335	1.0
825.714810110344	0.08579999999999996	1.3200000000000003	1.0
825.714810110344	0.08386666666666662	1.3934666666666666	1.0
826.4331583019555	0.08426666666666663	1.4882666666666666	1.0
826.8331840258478	0.08489999999999996	1.343866666666667	1.0
826.9310231104938	0.08283333333333329	1.4245333333333332	1.0
827.3429488096323	0.08086666666666661	1.4271999999999998	1.0
827.3429488096323	0.08086666666666661	1.4014666666666666	1.0
827.3442581408514	0.08093333333333329	1.4	1.0
827.7477886376012	0.08019999999999997	1.4	1.0
827.7477886376012	0.07996666666666663	1.4302666666666666	1.0
828.0440635529711	0.08103333333333329	1.4610666666666667	1.0
828.6605327927156	0.08466666666666661	1.4797333333333331	1.0
828.6605327927156	0.08109999999999995	1.5056	1.0
828.6606974256508	0.08289999999999996	1.3976000000000002	1.0
828.6606974256508	0.08166666666666662	1.3396	1.0
828.759830125463	0.08303333333333329	1.3252000000000002	1.0
829.2649695363775	0.08279999999999997	1.3928	1.0
829.2649695363775	0.08286666666666662	1.3938666666666668	1.0
829.2736936199564	0.08019999999999997	1.4274666666666664	1.0
829.5669667784724	0.08019999999999997	1.48	1.0
829.5197048630682	0.08096666666666662	1.48	1.0
829.3767434834634	0.08543333333333329	1.4325333333333332	1.0
829.3767434834634	0.07889999999999996	1.4032000000000002	1.0
829.8868123446164	0.08243333333333329	1.4030666666666665	1.0
830.3969575301019	0.07523333333333329	1.4790666666666668	1.0
830.3844575334507	0.07959999999999995	1.4754666666666667	1.0
830.4017476146319	0.08433333333333329	1.5313333333333332	1.0
830.4017476146319	0.08346666666666662	1.5075999999999998	1.0
830.9073032521882	0.08133333333333329	1.4088	1.0
831.1135292036712	0.08096666666666662	1.3966666666666667	1.0
831.2161869910078	0.08096666666666662	1.48	1.0
831.2161869910078	0.08096666666666662	1.5238666666666667	1.0
831.2161869910078	0.07953333333333329	1.5238666666666667	1.0
831.7282936849705	0.07986666666666663	1.4798666666666667	1.0
832.1379027635795	0.08096666666666662	1.4174666666666667	1.0
832.1370112780197	0.07943333333333329	1.4205333333333332	1.0
832.5499210145387	0.07976666666666662	1.4717333333333333	1.0
832.5499210145387	0.08073333333333328	1.48	1.0
832.5523258764065	0.08823333333333329	1.5056000000000003	1.0
832.7549493486451	0.08356666666666662	1.48	1.0
832.9643843842912	0.08499999999999996	1.3994666666666669	1.0
833.3775336176762	0.08759999999999996	1.4008	1.0
833.3775336176762	0.08469999999999997	1.3983999999999999	1.0
833.3775336176762	0.08469999999999997	1.46	1.0
833.3760500242902	0.08609999999999995	1.46	1.0
833.3752247203911	0.10499999999999995	1.5248000000000002	1.0
833.8902673875594	0.0954333333333333	1.4877333333333331	1.0
833.8902673875594	0.09856666666666662	1.3684	1.0
833.8902673875594	0.09959999999999995	1.261466666666667	1.0
834.2000876258445	0.10769999999999996	1.2593333333333336	1.0
834.5069881028157	0.11526666666666664	1.1349333333333333	1.0
834.615504802355	0.09559999999999998	0.5912000000000001	1.0
834.615504802355	0.09163333333333329	0.38573333333333354	1.0
835.0322764847757	0.07139999999999996	0.18640000000000018	1.0
835.0327859184947	0.07139999999999996	0.0701333333333334	1.0
835.2335547657592	0.06483333333333327	0.02853333333333336	1.0
835.6480762219461	0.06199999999999994	0.02853333333333336	1.0
835.6480762219461	0.05399999999999994	-0.009733333333333342	1.0
835.6486199828304	0.0552666666666666	-0.022933333333333354	1.0
835.8571504603242	0.05563333333333328	-0.02506666666666669	1.0
836.2739177244016	0.05193333333333327	-0.023733333333333353	1.0
836.685614426706	0.055466666666666595	-0.024400000000000022	1.0
836.685614426706	0.056699999999999945	-0.024800000000000023	1.0
836.58054183016	0.05259999999999993	-0.023466666666666688	1.0
836.7949417770221	0.055466666666666595	-0.026133333333333356	1.0
837.1024252810544	0.053166666666666605	-0.024400000000000022	1.0
837.1032962892833	0.053166666666666605	-0.02360000000000002	1.0
837.1032962892833	0.051266666666666606	-0.025600000000000022	1.0
837.4170595672533	0.05599999999999993	-0.025600000000000022	1.0
837.4110056334464	0.05263333333333327	-0.02400000000000002	1.0
837.728673279929	0.05103333333333327	-0.02426666666666669	1.0
837.7288619672967	0.056066666666666605	-0.02626666666666669	1.0
837.7288619672967	0.05429999999999994	-0.027066666666666694	1.0
838.1497791950293	0.0536666666666666	-0.025333333333333357	1.0
838.2452778122829	0.0523666666666666	-0.023466666666666688	1.0
838.8793521855767	0.05399999999999994	-0.023333333333333355	1.0
839.0849936940461	0.054333333333333275	-0.024933333333333356	1.0
839.0849936940461	0.05776666666666661	-0.027066666666666694	1.0
839.0877452563257	0.05776666666666661	-0.02666666666666669	1.0
839.3957779482106	0.05399999999999994	-0.024533333333333355	1.0
839.504918663744	0.05586666666666661	-0.024533333333333355	1.0
840.3460318930623	0.052199999999999934	-0.023333333333333355	1.0
840.3460318930623	0.053133333333333276	-0.02546666666666669	1.0
840.5524758527207	0.05413333333333327	-0.028000000000000025	1.0
840.5529263966683	0.05416666666666659	-0.02240000000000002	1.0
840.8644050908798	0.049666666666666595	-0.022666666666666686	1.0
840.8607367299795	0.05379999999999993	-0.024133333333333354	1.0
840.8607367299795	0.05703333333333327	-0.024666666666666687	1.0
840.8641217281124	0.0527666666666666	-0.02400000000000002	1.0
841.2886597377667	0.051999999999999935	-0.022266666666666688	1.0
841.2842076081372	0.051999999999999935	-0.02586666666666669	1.0
841.2888907992641	0.051966666666666606	-0.025600000000000022	1.0
841.2888907992641	0.0551666666666666	-0.025600000000000022	1.0
841.5040032914171	0.05283333333333327	-0.026533333333333357	1.0
841.7076921956185	0.05413333333333327	-0.02400000000000002	1.0
841.7085647787426	0.053899999999999934	-0.023733333333333353	1.0
841.707530242935	0.05589999999999994	-0.025333333333333357	1.0
841.707530242935	0.0542666666666666	-0.023733333333333353	1.0
842.3371267625937	0.05273333333333328	-0.022133333333333352	1.0
842.8640307120984	0.0527666666666666	-0.02386666666666669	1.0
842.8227843076406	0.049766666666666605	-0.02280000000000002	1.0
843.0747959445268	0.049966666666666604	-0.023733333333333353	1.0
843.0747959445268	0.049966666666666604	-0.022266666666666688	1.0
843.4981019174412	0.05309999999999994	-0.02013333333333335	1.0
843.8144210810348	0.0517666666666666	-0.02013333333333335	1.0
844.2405783718176	0.0521666666666666	-0.024666666666666687	1.0
844.3487550126414	0.05609999999999995	-0.02506666666666669	1.0
844.6653541433503	0.0542666666666666	-0.02400000000000002	1.0
844.6653541433503	0.0532666666666666	-0.02360000000000002	1.0
844.6622998686851	0.05689999999999993	-0.025733333333333355	1.0
844.7713838218084	0.055833333333333277	-0.02400000000000002	1.0
844.7714349792054	0.05229999999999994	-0.023733333333333353	1.0
844.8713120314658	0.054766666666666595	-0.024666666666666687	1.0
844.8713120314658	0.05583333333333326	-0.024133333333333354	1.0
843.1795807596767	0.04939999999999994	-0.024400000000000022	1.0
842.9719063906131	0.04986666666666661	-0.022133333333333352	1.0
842.9754281981283	0.05019999999999994	-0.024666666666666687	1.0
842.7579992836752	0.05513333333333327	-0.02506666666666669	1.0
842.5542018820715	0.05223333333333327	-0.02320000000000002	1.0
842.5542018820715	0.05223333333333327	-0.02666666666666669	1.0
841.7332852268456	0.05733333333333327	-0.02386666666666669	1.0
841.6041670651246	0.051666666666666604	-0.02386666666666669	1.0
841.5997937523271	0.051933333333333276	-0.02546666666666669	1.0
841.6039290931916	0.05273333333333327	-0.024533333333333355	1.0
841.6039290931916	0.054799999999999946	-0.027333333333333355	1.0
841.2883853018423	0.05649999999999994	-0.024533333333333355	1.0
841.2875640201953	0.05123333333333327	-0.024800000000000023	1.0
840.8685588139655	0.04899999999999993	-0.022666666666666686	1.0
840.8685231953119	0.05463333333333326	-0.02520000000000002	1.0
840.8685231953119	0.05683333333333328	-0.029066666666666692	1.0
840.8684893145527	0.0539666666666666	-0.025333333333333357	1.0
840.864652512898	0.0539666666666666	-0.024933333333333356	1.0
840.4446817009516	0.0518666666666666	-0.024933333333333356	1.0
840.4447086950797	0.052666666666666605	-0.026933333333333358	1.0
840.4447086950797	0.05083333333333327	-0.023333333333333355	1.0
839.8234674391501	0.05243333333333326	-0.025600000000000022	1.0
839.505031221652	0.053366666666666604	-0.024933333333333356	1.0
839.510708342475	0.0525666666666666	-0.025600000000000022	1.0
839.5048589579523	0.05059999999999994	-0.02200000000000002	1.0
839.5048589579523	0.05463333333333326	-0.025333333333333357	1.0
839.0819933592082	0.05533333333333327	-0.02520000000000002	1.0
839.0843399497058	0.053133333333333276	-0.024133333333333354	1.0
838.5666356817628	0.053133333333333276	-0.025600000000000022	1.0
838.5662618631605	0.053599999999999946	-0.02386666666666669	1.0
838.5662618631605	0.05203333333333327	-0.02386666666666669	1.0
838.144965802828	0.05239999999999994	-0.02506666666666669	1.0
837.8324654879129	0.05233333333333327	-0.024800000000000023	1.0
837.7284446216541	0.049166666666666595	-0.020666666666666684	1.0
837.4115821686173	0.050633333333333266	-0.023066666666666687	1.0
837.4115821686173	0.048633333333333265	-0.023066666666666687	1.0
837.4154183783728	0.052033333333333265	-0.025333333333333357	1.0
837.1029622888303	0.0514666666666666	-0.024800000000000023	1.0
836.9999977756088	0.05393333333333327	-0.02400000000000002	1.0
836.795385216309	0.049233333333333275	-0.02426666666666669	1.0
836.795385216309	0.049233333333333275	-0.022533333333333353	1.0
836.6962690113425	0.054199999999999936	-0.02320000000000002	1.0
836.3817648354832	0.04949999999999993	-0.02320000000000002	1.0
836.0615460323348	0.05343333333333326	-0.026133333333333356	1.0
836.2764228252718	0.05706666666666661	-0.028000000000000025	1.0
835.857111135841	0.04983333333333327	-0.02360000000000002	1.0
835.857111135841	0.051799999999999936	-0.02506666666666669	1.0
835.7485575172021	0.0539666666666666	-0.02506666666666669	1.0
835.6478551436231	0.0496666666666666	-0.022266666666666688	1.0
835.2324867244872	0.0580666666666666	-0.009733333333333342	1.0
835.2325413177537	0.058433333333333275	0.019066666666666683	1.0
835.2325413177537	0.059899999999999946	0.0370666666666667	1.0
835.0291273449691	0.059899999999999946	0.13946666666666677	1.0
834.7173647361409	0.06443333333333329	0.3650666666666668	1.0
834.5084360222943	0.08556666666666662	0.3650666666666668	1.0
834.3041028339029	0.10089999999999995	0.6579999999999999	1.0
834.3041028339029	0.10089999999999995	0.6579999999999999	1.0
833.8911985687306	0.10089999999999995	0.6579999999999999	1.0
833.891479094671	0.10089999999999995	1.243866666666667	1.0
833.6893967186147	0.10126666666666663	1.243866666666667	1.0
833.3769925774955	0.09996666666666663	1.2317333333333336	1.0
833.3769925774955	0.09893333333333329	1.4848	1.0
833.3760242711389	0.09356666666666662	1.5597333333333336	1.0
833.3720877493049	0.10109999999999995	1.5721333333333334	1.0
832.9632954914284	0.09026666666666662	1.5174666666666667	1.0
832.9605047952383	0.08796666666666662	1.3970666666666667	1.0
832.9605047952383	0.08556666666666662	1.3972	1.0
832.9605047952383	0.0855333333333333	1.4167999999999998	1.0
832.9605047952383	0.08146666666666662	1.48	1.0
832.1380466685654	0.08146666666666662	1.4798666666666667	1.0
832.1369897462961	0.08839999999999996	1.4073333333333335	1.0
832.1369897462961	0.07713333333333329	1.4073333333333335	1.0
831.5329433760072	0.08273333333333328	1.3885333333333336	1.0
831.5329433760072	0.0755333333333333	1.4112	1.0
831.2125066811379	0.07729999999999995	1.5021333333333333	1.0
831.1135887665098	0.08449999999999996	1.5532000000000001	1.0
831.1135887665098	0.08076666666666661	1.48	1.0
831.0040187088792	0.07959999999999996	1.4543999999999997	1.0
830.3985357678567	0.08059999999999995	1.387066666666667	1.0
825.3466246595052	0.08033333333333328	1.4821333333333333	1.0
829.9875686762186	0.08099999999999995	1.5365333333333335	1.0
829.9875686762186	0.08099999999999995	1.4386666666666665	1.0
829.9826097577528	0.07729999999999994	1.48	1.0
829.4746660020272	0.08063333333333328	1.48	1.0
829.3784060029369	0.07919999999999995	1.4221333333333332	1.0
829.3735472232895	0.08166666666666662	1.4156	1.0
829.3735472232895	0.08046666666666662	1.4467999999999999	1.0
829.2747834889578	0.08033333333333328	1.4717333333333331	1.0
828.6572266446954	0.08316666666666662	1.4077333333333333	1.0
828.6572266446954	0.07956666666666662	1.4233333333333333	1.0
828.6572834158842	0.07839999999999996	1.3821333333333337	1.0
828.6572834158842	0.07853333333333329	1.3985333333333336	1.0
828.6572715218547	0.07763333333333328	1.4462666666666666	1.0
828.0515604825199	0.08606666666666662	1.5356000000000003	1.0
827.8449426151763	0.08606666666666662	1.4813333333333332	1.0
827.7480689301055	0.07933333333333328	1.4813333333333332	1.0
827.7480689301055	0.08289999999999995	1.5081333333333333	1.0
827.2408191990492	0.07559999999999995	1.4493333333333331	1.0
827.0351524014036	0.07879999999999995	1.4150666666666667	1.0
827.0328129812835	0.07929999999999997	1.3980000000000001	1.0
827.0328129812835	0.07626666666666662	1.3852000000000002	1.0
827.0328129812835	0.08366666666666663	1.3366666666666671	1.0
826.114884084053	0.07916666666666662	1.4587999999999999	1.0
825.7165645286484	0.08649999999999997	1.4582666666666668	1.0
825.7156166210358	0.08519999999999996	1.3212000000000002	1.0
825.7148001806604	0.08383333333333329	1.3718666666666668	1.0
825.6127176062852	0.08383333333333329	1.4093333333333333	1.0
825.6127176062852	0.07713333333333329	1.4617333333333333	1.0
825.6127176062852	0.08196666666666662	1.4617333333333333	1.0
825.3113239318577	0.08463333333333328	1.4798666666666664	1.0
825.3100924416153	0.08733333333333329	1.4798666666666667	1.0
825.2110231335176	0.08383333333333329	1.4792	1.0
825.2110231335176	0.08456666666666662	1.4048000000000003	1.0
824.9038639652767	0.08296666666666662	1.4736	1.0
824.4013840176669	0.08506666666666662	1.4296	1.0
824.4013840176669	0.08183333333333329	1.315866666666667	1.0
824.3052814450793	0.07726666666666662	1.2496000000000003	1.0
824.3052814450793	0.08506666666666662	1.3329333333333333	1.0
824.3052814450793	0.08506666666666662	1.4384	1.0
823.4992068487169	0.08709999999999996	1.4384	1.0
823.9036147601603	0.08616666666666663	1.4743999999999997	1.0
823.498289024491	0.08926666666666662	1.4775999999999998	1.0
823.498289024491	0.08209999999999995	1.48	1.0
823.4954338130732	0.0894333333333333	1.48	1.0
822.2891364945706	0.08389999999999996	1.3926666666666667	1.0
822.1918492345966	0.08706666666666663	1.319866666666667	1.0
821.9846345989716	0.08466666666666661	1.3208000000000004	1.0
821.9846345989716	0.08796666666666662	1.339466666666667	1.0
821.8873212928586	0.08706666666666661	1.4005333333333334	1.0
821.8873212928586	0.08833333333333329	1.4798666666666667	1.0
821.8899986889859	0.08833333333333329	1.48	1.0
821.5827269420855	0.09096666666666661	1.4476	1.0
821.5827269420855	0.08709999999999996	1.4476	1.0
821.5842827835108	0.08713333333333328	1.4790666666666665	1.0
821.0867785832615	0.08903333333333328	1.4292	1.0
820.9925945639706	0.09279999999999997	1.4370666666666667	1.0
820.780159810405	0.08696666666666664	1.4367999999999999	1.0
820.780159810405	0.09319999999999995	1.3949333333333334	1.0
820.496696735337	0.08593333333333329	1.3906666666666667	1.0
820.5889432479961	0.09109999999999994	1.4746666666666666	1.0
819.7866588646979	0.09199999999999996	1.4806666666666666	1.0
819.7864847459449	0.09433333333333328	1.3656000000000001	1.0
819.7864847459449	0.09433333333333328	1.3816000000000002	1.0
819.7895947192316	0.0910333333333333	1.3448000000000002	1.0
818.5926754136975	0.09129999999999995	1.3448000000000002	1.0
818.5937580503345	0.0899333333333333	1.3618666666666668	1.0
818.4969163369099	0.09019999999999995	1.313866666666667	1.0
818.4969163369099	0.09263333333333329	1.315466666666667	1.0
818.4969163369099	0.09246666666666663	1.3172000000000004	1.0
818.2883364215853	0.09349999999999996	1.2724000000000002	1.0
818.2883364215853	0.08566666666666661	1.2397333333333336	1.0
818.1945531155322	0.08976666666666662	1.3200000000000003	1.0
818.1945531155322	0.09269999999999996	1.3861333333333334	1.0
817.7951051961584	0.08786666666666662	1.3029333333333337	1.0
817.6130699587992	0.08879999999999995	1.2409333333333334	1.0
817.4997523501025	0.08879999999999995	1.2508000000000001	1.0
817.3059943241554	0.09353333333333329	1.2508000000000001	1.0
817.3059943241554	0.09236666666666662	1.321066666666667	1.0
817.3059943241554	0.09316666666666662	1.3208000000000004	1.0
816.9089360094908	0.09439999999999996	1.3200000000000003	1.0
816.2076492629963	0.09276666666666661	1.3717333333333337	1.0
816.2076878465348	0.09156666666666663	1.217066666666667	1.0
816.2076878465348	0.09226666666666662	1.1628	1.0
815.3234994347736	0.09556666666666662	1.3888	1.0
815.3245814549242	0.0955333333333333	1.357866666666667	1.0
815.1350636214802	0.08983333333333328	1.255866666666667	1.0
814.739378217682	0.09253333333333329	1.1740000000000002	1.0
814.739378217682	0.09253333333333329	1.4121333333333332	1.0
814.7382486520073	0.09853333333333329	1.4690666666666663	1.0
814.7407691309952	0.10333333333333329	1.4690666666666663	1.0
814.7407279695582	0.10303333333333328	1.4613333333333332	1.0
814.5296127641507	0.1007333333333333	1.437733333333333	1.0
814.5296127641507	0.10573333333333329	1.3714666666666668	1.0
814.0453287355816	0.09426666666666664	1.2480000000000002	1.0
814.0493878547591	0.09206666666666662	1.2428000000000003	1.0
813.1654487971283	0.09126666666666662	1.245866666666667	1.0
813.1656253182203	0.09986666666666662	1.324	1.0
813.1656253182203	0.10209999999999995	1.346266666666667	1.0
812.8664749063918	0.09743333333333329	1.3205333333333336	1.0
812.6312013350755	0.09743333333333329	1.327066666666667	1.0
812.6802963175774	0.0995333333333333	1.3834666666666668	1.0
811.8000208604042	0.09836666666666662	1.3834666666666668	1.0
811.8000208604042	0.09786666666666662	1.3201333333333336	1.0
811.4978395955454	0.10266666666666663	1.311466666666667	1.0
811.4081636988184	0.09263333333333329	1.175066666666667	1.0
811.4037968075073	0.09929999999999996	1.273066666666667	1.0
811.4084106940398	0.09686666666666663	1.317066666666667	1.0
811.4084106940398	0.09709999999999996	1.3325333333333338	1.0
811.4084106940398	0.09996666666666662	1.3845333333333334	1.0
811.309845689092	0.10336666666666662	1.462533333333333	1.0
811.1087220239119	0.10139999999999995	1.4778666666666667	1.0
811.1146551707936	0.10139999999999995	1.4792	1.0
811.1146551707936	0.09856666666666662	1.3494666666666668	1.0
810.8119331285852	0.10013333333333328	1.3269333333333335	1.0
810.6286015735742	0.09429999999999995	1.3269333333333335	1.0
810.4222020228698	0.09693333333333329	1.3764000000000003	1.0
809.9387711426657	0.1035333333333333	1.2822666666666669	1.0
809.9387711426657	0.09669999999999995	1.219066666666667	1.0
809.8417601355052	0.0987333333333333	1.2676000000000003	1.0
809.4136674312382	0.09819999999999995	1.2552	1.0
809.3584089930827	0.09659999999999995	1.2342666666666668	1.0
809.1628461241487	0.09556666666666662	1.2537333333333336	1.0
809.1628461241487	0.09786666666666662	1.2568000000000004	1.0
808.1990710583688	0.09609999999999996	1.3321333333333336	1.0
808.1983211694625	0.09609999999999996	1.3216000000000003	1.0
807.8756809520495	0.09966666666666663	1.2404000000000002	1.0
808.0083982830555	0.09409999999999995	1.2404000000000002	1.0
808.0083982830555	0.09773333333333328	1.2869333333333335	1.0
808.010338971297	0.10269999999999994	1.382666666666667	1.0
807.8099791551688	0.09856666666666662	1.305066666666667	1.0
807.8107002576434	0.0938333333333333	1.3068000000000002	1.0
807.8107002576434	0.09899999999999996	1.3204000000000002	1.0
807.8107002576434	0.10049999999999995	1.323466666666667	1.0
807.7187661763855	0.1036333333333333	1.2880000000000003	1.0
807.4220540628304	0.10059999999999997	1.1674666666666669	1.0
807.0299737467876	0.09116666666666662	1.1640000000000001	1.0
807.0344351812414	0.09116666666666662	1.3177333333333336	1.0
807.0344351812414	0.10123333333333329	1.2241333333333335	1.0
806.8454756938069	0.09766666666666664	1.2241333333333335	1.0
806.0761532910798	0.09719999999999995	1.1718666666666668	1.0
806.0761532910798	0.09939999999999996	1.2384000000000004	1.0
806.0753116841315	0.0948333333333333	1.2394666666666667	1.0
806.0753116841315	0.09616666666666662	1.2380000000000002	1.0
805.8815684707658	0.09659999999999996	1.2697333333333336	1.0
804.824888928146	0.10046666666666662	1.275866666666667	1.0
804.9477576152842	0.09376666666666662	1.2081333333333335	1.0
804.6272329416224	0.0972333333333333	1.2252000000000003	1.0
804.6272329416224	0.09306666666666663	1.1604	1.0
804.6251966212192	0.09306666666666663	1.1622666666666668	1.0
804.6251966212192	0.09426666666666662	1.1800000000000002	1.0
804.3475901700991	0.09476666666666662	1.1800000000000002	1.0
804.3471023975166	0.09329999999999995	1.1605333333333334	1.0
804.3471023975166	0.08979999999999996	1.1548000000000003	1.0
804.1457639399283	0.10393333333333328	1.1601333333333337	1.0
804.1493201105986	0.09626666666666663	1.1601333333333335	1.0
804.1493201105986	0.0973333333333333	1.1693333333333336	1.0
803.4854897230094	0.10019999999999996	1.254666666666667	1.0
803.1940199588755	0.09569999999999995	1.231466666666667	1.0
803.1940199588755	0.09446666666666663	1.2258666666666669	1.0
802.7212153728797	0.09886666666666662	1.2129333333333334	1.0
802.7250967729423	0.09753333333333329	1.3156	1.0
802.6264559653035	0.09753333333333329	1.3145333333333338	1.0
802.6264559653035	0.09619999999999995	1.3145333333333338	1.0
801.3800962642383	0.09706666666666663	1.1749333333333336	1.0
801.39132927783	0.0918333333333333	1.1802666666666668	1.0
801.3866891735545	0.09266666666666662	1.1729333333333334	1.0
801.1903170570517	0.09786666666666662	1.1886666666666668	1.0
801.1903170570517	0.10106666666666662	1.2873333333333334	1.0
801.1904702971588	0.10229999999999996	1.3708000000000002	1.0
801.1924255692654	0.09533333333333328	1.307866666666667	1.0
801.0995823524388	0.0930333333333333	1.2390666666666668	1.0
801.0984715257424	0.0912333333333333	1.1697333333333335	1.0
801.0984715257424	0.0912333333333333	1.0800000000000003	1.0
801.1019226502904	0.09059999999999996	1.0809333333333335	1.0
800.8164288573983	0.0923333333333333	1.0809333333333335	1.0
800.9891423797848	0.09019999999999995	1.1484	1.0
800.5251337856132	0.08936666666666661	1.1580000000000001	1.0
800.5251337856132	0.09449999999999996	1.1764000000000003	1.0
800.3420711312535	0.09296666666666663	1.1713333333333336	1.0
