wavelength(nm)	flourescence PMT(V)	ti_saph Power (V)	Gain (V)
800.5225600898866	0.09299999999999996	1.1685333333333334	1.0
800.8099990094042	0.09223333333333329	1.1788	1.0
800.7710515165562	0.09223333333333329	1.1601333333333337	1.0
801.1018957800114	0.09163333333333329	1.1382666666666668	1.0
801.1018957800114	0.09353333333333329	1.1382666666666668	1.0
801.0984733067338	0.09036666666666662	1.08	1.0
801.0983580332406	0.09249999999999996	1.08	1.0
801.0965417245741	0.09313333333333329	1.1136000000000001	1.0
801.2837633918442	0.08946666666666662	1.1632	1.0
801.2837633918442	0.09509999999999996	1.2361333333333335	1.0
801.3872650041677	0.08906666666666663	1.1745333333333334	1.0
801.3760378765398	0.0975333333333333	1.1574666666666666	1.0
801.3760378765398	0.09279999999999997	1.1025333333333334	1.0
802.6213596306865	0.09249999999999996	1.1573333333333335	1.0
802.6213596306865	0.09336666666666663	1.1702666666666668	1.0
802.6779038877875	0.09336666666666663	1.2361333333333335	1.0
802.8115955403609	0.09846666666666662	1.2361333333333335	1.0
803.1560661528254	0.09909999999999997	1.2073333333333336	1.0
803.4836029113001	0.09756666666666663	1.2009333333333336	1.0
803.4836029113001	0.09929999999999994	1.2380000000000002	1.0
803.4836029113001	0.10129999999999996	1.2506666666666668	1.0
803.4836029113001	0.10069999999999997	1.2348000000000001	1.0
804.2872246030714	0.09536666666666661	1.1781333333333335	1.0
804.3798844636848	0.09829999999999996	1.1728000000000003	1.0
804.3798844636848	0.09279999999999997	1.202666666666667	1.0
804.3392850073207	0.09573333333333328	1.1944000000000001	1.0
804.437463609318	0.09166666666666663	1.1596	1.0
804.437463609318	0.09166666666666663	1.0842666666666667	1.0
804.6338060709917	0.09649999999999996	1.1158666666666668	1.0
804.6338060709917	0.09029999999999996	1.1158666666666668	1.0
804.7293087525414	0.09603333333333329	1.1590666666666667	1.0
804.6260327606102	0.09706666666666662	1.1694666666666669	1.0
804.720566495657	0.09729999999999996	1.2325333333333335	1.0
805.7799116828583	0.09889999999999996	1.2648000000000001	1.0
806.0743275722925	0.09553333333333329	1.2466666666666668	1.0
806.0743275722925	0.1021333333333333	1.2561333333333335	1.0
806.0743275722925	0.10066666666666663	1.3137333333333336	1.0
806.0752984076635	0.1017333333333333	1.3197333333333336	1.0
806.3678727202202	0.09803333333333329	1.305466666666667	1.0
807.0299901821737	0.09803333333333329	1.2617333333333336	1.0
807.0299901821737	0.09936666666666663	1.3045333333333335	1.0
807.4224549421788	0.09513333333333328	1.3045333333333335	1.0
807.4225823865928	0.0968333333333333	1.2316000000000003	1.0
807.8086324912973	0.09716666666666661	1.16	1.0
807.8097389376923	0.09589999999999996	1.1601333333333335	1.0
807.8097389376923	0.09799999999999996	1.191466666666667	1.0
807.9082081907303	0.10519999999999996	1.3153333333333337	1.0
807.8098645079872	0.09759999999999995	1.3220000000000003	1.0
807.8997840342126	0.10259999999999996	1.3176000000000003	1.0
807.99849785553	0.1006333333333333	1.306666666666667	1.0
807.99849785553	0.09886666666666663	1.2420000000000002	1.0
808.1035006689186	0.09886666666666663	1.2702666666666669	1.0
808.1034968816025	0.10236666666666662	1.2757333333333336	1.0
808.2883187397056	0.09879999999999996	1.2757333333333336	1.0
808.1979650741217	0.09726666666666661	1.1613333333333336	1.0
808.1979650741217	0.09516666666666662	1.1601333333333335	1.0
808.1979650741217	0.0992333333333333	1.2829333333333335	1.0
809.4544511830557	0.10106666666666662	1.3008000000000002	1.0
809.4544511830557	0.09703333333333329	1.255466666666667	1.0
809.4525084501657	0.09523333333333328	1.2333333333333336	1.0
809.4525084501657	0.10379999999999995	1.2118666666666669	1.0
809.9372031338083	0.09866666666666662	1.2540000000000002	1.0
810.2295128291287	0.09326666666666664	1.1805333333333337	1.0
810.6287683822728	0.09326666666666664	1.3849333333333333	1.0
810.6226556486563	0.10259999999999996	1.3828	1.0
810.6226556486563	0.10069999999999996	1.3828	1.0
811.1086685421129	0.10126666666666663	1.3860000000000001	1.0
811.1076975689801	0.1044333333333333	1.48	1.0
811.1087621419621	0.10886666666666661	1.4798666666666667	1.0
811.3087244323598	0.10549999999999995	1.4346666666666665	1.0
811.4989223627609	0.10096666666666664	1.3328000000000002	1.0
811.4989223627609	0.10019999999999994	1.3197333333333336	1.0
811.4989644627512	0.09949999999999996	1.2769333333333335	1.0
811.4993822636667	0.09813333333333328	1.2092	1.0
811.4990968425266	0.09336666666666663	1.1669333333333334	1.0
811.4990968425266	0.09336666666666663	1.16	1.0
811.4990968425266	0.08849999999999997	1.1601333333333337	1.0
811.7999012756745	0.09136666666666664	1.1601333333333337	1.0
811.7956963621073	0.09503333333333329	1.16	1.0
812.6768608428528	0.0976333333333333	1.2021333333333337	1.0
812.8666155056202	0.10096666666666662	1.392266666666667	1.0
812.8666155056202	0.09433333333333328	1.3313333333333337	1.0
813.0667566083195	0.09499999999999996	1.2402666666666669	1.0
813.1603587568524	0.1017333333333333	1.338666666666667	1.0
813.1608871812604	0.10246666666666662	1.3997333333333335	1.0
813.1608871812604	0.10396666666666661	1.324266666666667	1.0
813.1608871812604	0.09176666666666662	1.3056000000000003	1.0
814.5340018120663	0.09813333333333331	1.2976000000000003	1.0
814.7365476288403	0.09813333333333331	1.3861333333333334	1.0
814.7382181835852	0.1017333333333333	1.4174666666666667	1.0
814.7382181835852	0.10273333333333329	1.4174666666666667	1.0
814.7382181835852	0.1016333333333333	1.4770666666666667	1.0
814.7369948608589	0.09513333333333328	1.4677333333333333	1.0
814.7371723740706	0.09569999999999995	1.4529333333333334	1.0
815.1284281595415	0.09706666666666662	1.4149333333333334	1.0
815.1329805886287	0.09726666666666661	1.207066666666667	1.0
815.322846516487	0.09599999999999996	1.2052000000000003	1.0
815.322846516487	0.09453333333333329	1.3024000000000004	1.0
815.3225697964123	0.0967333333333333	1.3668000000000002	1.0
816.2065419307318	0.09556666666666662	1.3170666666666668	1.0
816.2065083119852	0.09556666666666662	1.16	1.0
816.9073352101606	0.09129999999999995	1.1862666666666668	1.0
816.9073352101606	0.08923333333333329	1.1862666666666668	1.0
816.9092425564063	0.09649999999999996	1.3197333333333336	1.0
817.3993938283327	0.09739999999999994	1.3196000000000003	1.0
817.5045149291426	0.0948333333333333	1.3200000000000003	1.0
817.8010470367027	0.08769999999999996	1.231466666666667	1.0
817.8010470367027	0.09719999999999995	1.1974666666666667	1.0
817.800297533116	0.09003333333333328	1.2386666666666668	1.0
818.1941379741306	0.09806666666666662	1.3277333333333334	1.0
818.285647270293	0.08553333333333328	1.2590666666666668	1.0
818.498704084445	0.09509999999999996	1.2128000000000003	1.0
818.498704084445	0.09509999999999996	1.2400000000000002	1.0
818.5926265794315	0.09143333333333328	1.2404000000000002	1.0
818.5883620466124	0.08806666666666663	1.2404000000000002	1.0
818.5964620545236	0.09089999999999997	1.2081333333333335	1.0
818.5900682313359	0.09166666666666662	1.2086666666666668	1.0
818.5900682313359	0.09266666666666663	1.310266666666667	1.0
819.3868101972904	0.09296666666666663	1.3590666666666669	1.0
819.7908767242166	0.0906333333333333	1.3236	1.0
819.7895788900046	0.0904333333333333	1.3568000000000002	1.0
819.7908421252141	0.09613333333333329	1.3236	1.0
819.7908421252141	0.08856666666666663	1.2844000000000002	1.0
820.5893360139645	0.08896666666666662	1.345466666666667	1.0
820.5906616998287	0.08889999999999997	1.3305333333333336	1.0
821.0854957183047	0.08889999999999997	1.319466666666667	1.0
820.9903256849444	0.09403333333333329	1.3856000000000002	1.0
820.9903256849444	0.09369999999999995	1.3856000000000002	1.0
821.389710293661	0.09163333333333329	1.4426666666666665	1.0
821.389710293661	0.09286666666666661	1.4405333333333332	1.0
821.389710293661	0.08973333333333329	1.48	1.0
821.7932520637052	0.08829999999999996	1.48	1.0
821.7932520637052	0.08839999999999996	1.4225333333333332	1.0
821.7932520637052	0.08826666666666663	1.4001333333333335	1.0
821.8890814975305	0.0894333333333333	1.3974666666666666	1.0
822.1835549965188	0.08586666666666662	1.3257333333333337	1.0
822.188721427014	0.09523333333333328	1.3200000000000003	1.0
822.292086409253	0.09523333333333328	1.311866666666667	1.0
822.292086409253	0.08939999999999995	1.3193333333333337	1.0
822.4847549502206	0.08563333333333328	1.3193333333333337	1.0
823.5000857335278	0.08619999999999996	1.4250666666666667	1.0
823.4953852395308	0.0876333333333333	1.48	1.0
823.4944966868786	0.08716666666666661	1.48	1.0
823.4944966868786	0.0904333333333333	1.4483999999999997	1.0
824.0933091783068	0.08569999999999996	1.4694666666666665	1.0
824.0971771762227	0.08756666666666663	1.4062666666666666	1.0
824.3999931227809	0.08723333333333329	1.3244000000000002	1.0
824.8097027747154	0.08183333333333329	1.2700000000000002	1.0
824.8097027747154	0.08383333333333329	1.3200000000000003	1.0
824.8077364311077	0.08383333333333329	1.4801333333333333	1.0
820.1410833962137	0.09246666666666663	1.4326666666666668	1.0
825.3094285047437	0.0865333333333333	1.4326666666666668	1.0
825.3094285047437	0.0797333333333333	1.4689333333333332	1.0
825.3094285047437	0.08776666666666663	1.4809333333333332	1.0
825.3075205491557	0.0945666666666666	1.4764	1.0
825.7156245835421	0.08536666666666662	1.4370666666666667	1.0
825.7134945628517	0.08846666666666662	1.3778666666666668	1.0
825.7154786041432	0.08713333333333328	1.3216000000000003	1.0
825.7154786041432	0.08489999999999995	1.3200000000000003	1.0
825.7127374988345	0.08656666666666661	1.319466666666667	1.0
825.7127374988345	0.09236666666666662	1.4974666666666667	1.0
825.7127374988345	0.09236666666666662	1.3472000000000002	1.0
827.0290077447062	0.07899999999999996	1.3258666666666667	1.0
827.0303815675121	0.08423333333333329	1.3258666666666667	1.0
827.0303815675121	0.08649999999999997	1.3872	1.0
827.3292884943704	0.08426666666666663	1.3986666666666667	1.0
827.7449804656433	0.08239999999999995	1.3708000000000002	1.0
827.7421578185105	0.08546666666666662	1.48	1.0
828.042852774412	0.07889999999999996	1.48	1.0
828.042852774412	0.08716666666666663	1.48	1.0
828.042852774412	0.08196666666666662	1.4836	1.0
828.3480997494522	0.0848333333333333	1.4822666666666664	1.0
828.6571498149749	0.08329999999999996	1.3869333333333336	1.0
828.6570659901723	0.08329999999999996	1.3241333333333338	1.0
828.6570659901723	0.08333333333333329	1.3481333333333334	1.0
828.7605369742918	0.08509999999999995	1.3481333333333334	1.0
829.2698198584261	0.08233333333333327	1.4238666666666666	1.0
829.2698198584261	0.08146666666666662	1.3318666666666668	1.0
829.2735005795528	0.07903333333333329	1.3829333333333336	1.0
829.2735005795528	0.08153333333333329	1.3869333333333336	1.0
829.4739981457619	0.08393333333333329	1.4232	1.0
829.8877467786339	0.07886666666666663	1.3988	1.0
829.9815556636801	0.08109999999999995	1.48	1.0
829.8849225999759	0.08003333333333328	1.4270666666666667	1.0
829.8849225999759	0.08396666666666662	1.4062666666666666	1.0
830.3948455094207	0.07616666666666662	1.4853333333333332	1.0
830.5924536616122	0.07616666666666662	1.394266666666667	1.0
831.1141055547454	0.07733333333333328	1.3401333333333336	1.0
831.2186137369591	0.07779999999999995	1.3401333333333336	1.0
831.2186137369591	0.08026666666666663	1.4149333333333334	1.0
831.214373728565	0.07799999999999994	1.428133333333333	1.0
831.7215758413008	0.08309999999999995	1.4777333333333331	1.0
831.7280493778954	0.0811333333333333	1.4238666666666666	1.0
832.1381937638051	0.08543333333333329	1.375466666666667	1.0
832.1381937638051	0.08153333333333329	1.3962666666666668	1.0
832.1381937638051	0.08246666666666663	1.4282666666666668	1.0
832.5519146992946	0.08593333333333329	1.4707999999999999	1.0
832.6534510004523	0.08463333333333328	1.48	1.0
832.7501668688325	0.08463333333333328	1.4193333333333331	1.0
832.9631601695079	0.08789999999999995	1.4	1.0
832.9631601695079	0.09193333333333328	1.4	1.0
832.9631601695079	0.08233333333333329	1.3946666666666667	1.0
833.3744157193365	0.09599999999999996	1.3972	1.0
833.3744157193365	0.08986666666666662	1.48	1.0
833.8927009158115	0.09419999999999995	1.4902666666666666	1.0
833.8927009158115	0.09676666666666663	1.3301333333333336	1.0
833.8940839213384	0.10253333333333328	1.2708000000000002	1.0
834.2014743925005	0.1081333333333333	1.2448000000000001	1.0
834.512999557233	0.11143333333333329	1.1516	1.0
834.7173566330694	0.10819999999999998	0.9033333333333333	1.0
834.7173566330694	0.10819999999999998	0.9033333333333333	1.0
834.7698120794267	0.10819999999999998	0.9033333333333333	1.0
835.027528338756	0.10819999999999998	0.9033333333333333	1.0
835.3291947312142	0.06916666666666661	0.0438666666666667	1.0
835.2329950134927	0.06329999999999994	0.010000000000000009	1.0
835.2329950134927	0.06329999999999994	-0.002400000000000002	1.0
835.4428629475102	0.059899999999999946	-0.020266666666666686	1.0
835.7448190088315	0.05349999999999994	-0.020266666666666686	1.0
836.066259286552	0.05586666666666661	-0.02786666666666669	1.0
836.2705694273412	0.056733333333333275	-0.028933333333333356	1.0
836.6897876127535	0.05529999999999994	-0.026533333333333357	1.0
836.6897876127535	0.0522666666666666	-0.026933333333333358	1.0
836.7977888081114	0.05736666666666661	-0.029066666666666692	1.0
836.7941323756503	0.0517666666666666	-0.025733333333333355	1.0
836.9989075624095	0.05429999999999995	-0.027600000000000027	1.0
837.4125749835806	0.0561666666666666	-0.02933333333333336	1.0
837.4125749835806	0.05439999999999994	-0.028266666666666693	1.0
836.9975584313585	0.05439999999999994	-0.026000000000000023	1.0
837.7237685849532	0.05413333333333327	-0.025333333333333357	1.0
837.7269271225413	0.05533333333333327	-0.025333333333333357	1.0
837.7238921602682	0.051433333333333275	-0.025333333333333357	1.0
837.7238921602682	0.051533333333333264	-0.027733333333333356	1.0
838.1444940817838	0.05509999999999995	-0.026533333333333357	1.0
838.2498274804346	0.05526666666666662	-0.02586666666666669	1.0
838.919768853226	0.0536666666666666	-0.026533333333333357	1.0
839.086153697773	0.0511666666666666	-0.026400000000000024	1.0
839.086153697773	0.0490666666666666	-0.02320000000000002	1.0
838.8736994576375	0.055066666666666604	-0.024400000000000022	1.0
839.5037756662923	0.052199999999999934	-0.026400000000000024	1.0
839.5052170621847	0.052199999999999934	-0.025600000000000022	1.0
839.919123806036	0.05439999999999994	-0.027600000000000027	1.0
839.919123806036	0.05543333333333327	-0.027600000000000027	1.0
840.0242871570385	0.05379999999999993	-0.028266666666666693	1.0
840.3459956360905	0.05493333333333328	-0.02680000000000002	1.0
840.4460008882838	0.053733333333333265	-0.02680000000000002	1.0
840.8628593403447	0.05233333333333327	-0.028266666666666693	1.0
840.8628593403447	0.05929999999999995	-0.031333333333333366	1.0
840.9757657175861	0.054366666666666605	-0.026133333333333356	1.0
840.8675319448583	0.05173333333333327	-0.02746666666666669	1.0
840.8675319448583	0.052166666666666604	-0.028666666666666694	1.0
841.3818606213114	0.056099999999999935	-0.03013333333333336	1.0
841.3818606213114	0.056099999999999935	-0.02933333333333336	1.0
841.5881427987571	0.05579999999999993	-0.02746666666666669	1.0
841.7038106300918	0.05546666666666661	-0.02746666666666669	1.0
841.7075792874654	0.05749999999999994	-0.02933333333333336	1.0
842.1325531983216	0.05449999999999993	-0.028800000000000027	1.0
842.762537750427	0.05443333333333328	-0.029066666666666692	1.0
842.762537750427	0.055499999999999945	-0.02853333333333336	1.0
842.8695975441627	0.05499999999999994	-0.030266666666666695	1.0
843.0699342370033	0.055099999999999934	-0.029600000000000026	1.0
843.0748525335644	0.052433333333333276	-0.027333333333333355	1.0
843.3973168772786	0.055699999999999944	-0.028000000000000025	1.0
843.3973168772786	0.056233333333333274	-0.02933333333333336	1.0
843.4968731398809	0.056233333333333274	-0.026133333333333356	1.0
844.2402138673058	0.05183333333333327	-0.026133333333333356	1.0
844.2402138673058	0.05226666666666661	-0.02946666666666669	1.0
844.4521511041868	0.050299999999999935	-0.025333333333333357	1.0
844.4521511041868	0.053633333333333276	-0.024666666666666687	1.0
844.5572196310131	0.053166666666666605	-0.02506666666666669	1.0
844.7701794019791	0.0497666666666666	-0.025333333333333357	1.0
844.7625759745424	0.05576666666666661	-0.02506666666666669	1.0
844.8784387597523	0.054899999999999935	-0.029866666666666694	1.0
844.8784387597523	0.05589999999999994	-0.028400000000000022	1.0
842.7576455156775	0.05439999999999993	-0.027066666666666694	1.0
842.7576455156775	0.0505666666666666	-0.02520000000000002	1.0
842.3371557431618	0.058266666666666606	-0.028933333333333356	1.0
842.3371557431618	0.05423333333333327	-0.025733333333333355	1.0
841.9150562253094	0.05603333333333327	-0.027733333333333356	1.0
841.6040028385306	0.05019999999999994	-0.026400000000000024	1.0
841.6040028385306	0.05019999999999994	-0.02680000000000002	1.0
841.50006710141	0.05213333333333327	-0.02813333333333336	1.0
841.60398530671	0.05499999999999994	-0.02813333333333336	1.0
841.333681102745	0.053033333333333266	-0.028400000000000022	1.0
841.2835677918406	0.05446666666666661	-0.024800000000000023	1.0
841.2835677918406	0.056233333333333274	-0.028666666666666694	1.0
840.9730466786638	0.054166666666666606	-0.026933333333333358	1.0
840.8594956437311	0.05326666666666661	-0.027066666666666694	1.0
840.860529768256	0.055999999999999946	-0.027066666666666694	1.0
840.5559375853868	0.05533333333333327	-0.030400000000000028	1.0
840.3498320701295	0.056566666666666605	-0.03266666666666669	1.0
840.3498320701295	0.057266666666666605	-0.029066666666666692	1.0
839.8199445495545	0.057266666666666605	-0.02813333333333336	1.0
840.0258069458171	0.05393333333333327	-0.026133333333333356	1.0
839.5048807922625	0.055566666666666605	-0.026133333333333356	1.0
839.4047939557558	0.05369999999999994	-0.029866666666666694	1.0
839.4047939557558	0.05476666666666661	-0.02933333333333336	1.0
839.086381868369	0.0525666666666666	-0.02813333333333336	1.0
838.8760734048105	0.0559666666666666	-0.030666666666666693	1.0
838.5655904427388	0.05063333333333327	-0.028933333333333356	1.0
838.5658227045772	0.054366666666666605	-0.02586666666666669	1.0
838.5658227045772	0.055933333333333266	-0.02786666666666669	1.0
838.1442704845917	0.05663333333333327	-0.03080000000000003	1.0
837.7287286183537	0.051799999999999936	-0.026533333333333357	1.0
837.7275298663587	0.051799999999999936	-0.03293333333333336	1.0
837.4227243017594	0.055066666666666604	-0.02586666666666669	1.0
837.4227243017594	0.0505666666666666	-0.02586666666666669	1.0
837.5175467325312	0.05379999999999993	-0.02813333333333336	1.0
836.9974371623232	0.055933333333333266	-0.029600000000000026	1.0
836.9956890430262	0.05133333333333327	-0.028933333333333356	1.0
836.7858102400016	0.05346666666666661	-0.027200000000000023	1.0
836.7858102400016	0.05403333333333327	-0.02813333333333336	1.0
836.7845685821638	0.0527666666666666	-0.02586666666666669	1.0
836.5826873299262	0.053633333333333276	-0.025733333333333355	1.0
836.2685982022889	0.05533333333333327	-0.026933333333333358	1.0
836.1640426419315	0.05679999999999995	-0.026933333333333358	1.0
836.1640426419315	0.05679999999999995	-0.027200000000000023	1.0
835.8564602665375	0.05459999999999994	-0.02520000000000002	1.0
835.6526345437475	0.051966666666666606	-0.02520000000000002	1.0
835.6517765853357	0.05576666666666661	-0.02813333333333336	1.0
835.336407308275	0.05239999999999993	-0.024666666666666687	1.0
835.3302074576158	0.05823333333333327	-0.013866666666666678	1.0
835.3302074576158	0.060633333333333275	-0.0020000000000000018	1.0
835.0330317152764	0.06316666666666661	0.012400000000000012	1.0
834.9209891732964	0.06633333333333329	0.10026666666666675	1.0
834.8214816838789	0.0837333333333333	0.2646666666666669	1.0
834.5167791120192	0.09229999999999995	0.49893333333333334	1.0
834.5167791120192	0.11136666666666663	0.9989333333333331	1.0
834.300269757211	0.11136666666666663	1.0876000000000001	1.0
833.8902291388464	0.11209999999999996	1.267866666666667	1.0
833.9938960665818	0.10233333333333329	1.267866666666667	1.0
833.9938960665818	0.10013333333333328	1.2692000000000003	1.0
833.9938960665818	0.0958333333333333	1.3594666666666668	1.0
833.9938960665818	0.09483333333333328	1.5473333333333334	1.0
833.3757951248517	0.09813333333333331	1.5601333333333336	1.0
833.061956395862	0.09439999999999996	1.5184	1.0
832.9641741549693	0.09246666666666663	1.3804000000000003	1.0
832.9641741549693	0.08769999999999994	1.3853333333333333	1.0
832.9641920982604	0.08549999999999995	1.408	1.0
832.5547722174049	0.08583333333333329	1.48	1.0
832.5547722174049	0.09026666666666662	1.4845333333333335	1.0
832.1388901162509	0.09026666666666662	1.4761333333333333	1.0
832.1388901162509	0.08139999999999996	1.4761333333333333	1.0
831.7257823454969	0.08086666666666661	1.3944	1.0
831.7318285207613	0.08359999999999995	1.3696000000000004	1.0
831.2141188865527	0.08409999999999995	1.4870666666666668	1.0
831.2141188865527	0.08079999999999996	1.5738666666666667	1.0
831.0095858657596	0.08116666666666662	1.6299999999999997	1.0
831.0095858657596	0.08339999999999995	1.5022666666666664	1.0
830.3945893014823	0.07929999999999995	1.3937333333333333	1.0
830.3941962479785	0.08509999999999995	1.5052	1.0
829.5634901479561	0.08189999999999996	1.5629333333333335	1.0
829.8890984824056	0.08139999999999996	1.4790666666666665	1.0
829.8890984824056	0.08139999999999996	1.48	1.0
829.4810229099802	0.07906666666666662	1.378666666666667	1.0
829.3775913655575	0.08189999999999996	1.378666666666667	1.0
829.4777818839925	0.08116666666666662	1.3736000000000002	1.0
829.2736704497091	0.08426666666666663	1.4213333333333333	1.0
829.2736704497091	0.08173333333333328	1.3489333333333335	1.0
829.2680002601547	0.07856666666666662	1.3200000000000003	1.0
828.8578297421753	0.08886666666666664	1.4785333333333333	1.0
828.6626280446161	0.07649999999999996	1.4633333333333334	1.0
828.2479290502469	0.07743333333333327	1.3777333333333335	1.0
828.2479290502469	0.08073333333333328	1.4757333333333333	1.0
828.2544748239226	0.0848333333333333	1.5086666666666668	1.0
827.7474947436392	0.0848333333333333	1.48	1.0
827.6956304266257	0.08339999999999996	1.48	1.0
827.6956304266257	0.08219999999999997	1.48	1.0
827.6956304266257	0.08089999999999996	1.4328	1.0
827.0302495259101	0.08606666666666662	1.3377333333333334	1.0
827.0302495259101	0.08093333333333329	1.3953333333333333	1.0
827.0314391726135	0.08359999999999995	1.3904000000000003	1.0
827.0314391726135	0.07963333333333329	1.3356000000000001	1.0
827.0314391726135	0.08666666666666661	1.3482666666666672	1.0
826.1202000876222	0.08279999999999996	1.4731999999999998	1.0
826.1136551859599	0.0826333333333333	1.4813333333333332	1.0
825.715563082873	0.0845333333333333	1.3220000000000003	1.0
825.7122484902676	0.0845333333333333	1.3702666666666667	1.0
825.4066044015686	0.08699999999999995	1.4222666666666668	1.0
825.4066044015686	0.0812333333333333	1.4222666666666668	1.0
825.4066044015686	0.08456666666666661	1.4677333333333331	1.0
825.309366191328	0.08629999999999996	1.48	1.0
825.2137679201091	0.08226666666666661	1.4726666666666666	1.0
824.710126025775	0.08539999999999996	1.4072	1.0
824.710126025775	0.08706666666666663	1.3946666666666665	1.0
824.710126025775	0.08393333333333329	1.4976	1.0
824.4002342838289	0.08833333333333329	1.3330666666666668	1.0
824.4002342838289	0.08096666666666662	1.289066666666667	1.0
823.9969537269035	0.08493333333333329	1.3074666666666668	1.0
823.9969537269035	0.0866333333333333	1.41	1.0
823.9997147716887	0.0866333333333333	1.4214666666666669	1.0
823.9034512044863	0.08816666666666663	1.4207999999999998	1.0
823.4858653979317	0.09056666666666663	1.4207999999999998	1.0
823.4935492826288	0.09123333333333329	1.48	1.0
823.4935492826288	0.08363333333333328	1.48	1.0
822.5257088230724	0.08906666666666661	1.3877333333333335	1.0
822.2948914704085	0.09089999999999997	1.3204000000000005	1.0
822.2948914704085	0.08449999999999996	1.3204000000000002	1.0
821.891012309153	0.08519999999999996	1.3438666666666668	1.0
821.891012309153	0.09419999999999996	1.3805333333333336	1.0
821.891012309153	0.09506666666666663	1.4586666666666666	1.0
821.8888912495054	0.08903333333333328	1.4755999999999998	1.0
821.7904961564734	0.08903333333333328	1.4496	1.0
821.3018754053198	0.08819999999999996	1.4676	1.0
821.0875710389762	0.08679999999999995	1.4676	1.0
821.0875710389762	0.0866333333333333	1.4545333333333335	1.0
821.0864517375811	0.09259999999999996	1.4584	1.0
820.5881153814634	0.08999999999999996	1.4258666666666666	1.0
820.5903460888849	0.09643333333333329	1.3298666666666668	1.0
820.4904978478987	0.0938333333333333	1.3268000000000002	1.0
820.4904978478987	0.09719999999999995	1.336266666666667	1.0
820.4900902951072	0.08926666666666662	1.3694666666666668	1.0
819.7913662220844	0.09859999999999997	1.3137333333333336	1.0
819.8843929848733	0.09476666666666662	1.284266666666667	1.0
819.2960828215066	0.09476666666666662	1.3349333333333335	1.0
819.2960828215066	0.08906666666666661	1.3297333333333337	1.0
818.6901006415603	0.09853333333333329	1.3297333333333337	1.0
818.5935803031261	0.09569999999999995	1.3765333333333334	1.0
818.5911132083426	0.08946666666666662	1.2569333333333335	1.0
818.5911132083426	0.08923333333333329	1.2233333333333336	1.0
818.5911132083426	0.09343333333333328	1.3025333333333338	1.0
818.2864880009029	0.09073333333333329	1.2400000000000002	1.0
818.2864880009029	0.09159999999999996	1.2402666666666669	1.0
818.1927445825507	0.09436666666666663	1.3037333333333336	1.0
817.7944712733969	0.0956333333333333	1.3213333333333337	1.0
817.7944712733969	0.09236666666666662	1.1832	1.0
817.4955342145354	0.08883333333333328	1.2252000000000003	1.0
817.3986575910603	0.08883333333333328	1.2485333333333335	1.0
816.9053712800633	0.08756666666666661	1.315066666666667	1.0
816.906957802816	0.10106666666666662	1.315066666666667	1.0
816.906957802816	0.09966666666666664	1.328266666666667	1.0
816.2084809409506	0.09916666666666663	1.2776000000000003	1.0
816.2043872665797	0.09063333333333329	1.1608	1.0
815.3201885492349	0.09953333333333328	1.2832000000000003	1.0
815.3244781270957	0.10413333333333329	1.3886666666666667	1.0
815.3244781270957	0.09813333333333331	1.352666666666667	1.0
815.3244781270957	0.09539999999999997	1.2044000000000001	1.0
814.7426768630777	0.0983333333333333	1.2857333333333336	1.0
814.73701579415	0.09979999999999996	1.4482666666666668	1.0
814.7369874251299	0.09979999999999996	1.4639999999999997	1.0
814.7368850578595	0.0992333333333333	1.4608	1.0
814.7368850578595	0.10069999999999996	1.4608	1.0
814.5339954081225	0.10069999999999996	1.4344	1.0
814.5339954081225	0.1032333333333333	1.3548000000000002	1.0
814.0452064883937	0.09569999999999995	1.2401333333333335	1.0
813.165668414761	0.09619999999999995	1.2406666666666668	1.0
813.165668414761	0.10119999999999996	1.3241333333333338	1.0
813.1622566526732	0.1029333333333333	1.3669333333333336	1.0
812.8618212971708	0.10566666666666663	1.3817333333333337	1.0
812.6799954373677	0.09893333333333329	1.364266666666667	1.0
811.80191274091	0.1029333333333333	1.3893333333333335	1.0
811.80191274091	0.1029333333333333	1.335466666666667	1.0
811.8019318747748	0.10143333333333328	1.335466666666667	1.0
811.4987011806483	0.10786666666666661	1.3264000000000002	1.0
811.4987470667348	0.09506666666666663	1.1656000000000002	1.0
811.4985805541488	0.0962333333333333	1.16	1.0
811.4985805541488	0.09316666666666663	1.1668000000000003	1.0
811.4091180305506	0.09633333333333328	1.213466666666667	1.0
811.4091180305506	0.1029333333333333	1.3213333333333337	1.0
811.1110612576047	0.10426666666666662	1.3421333333333334	1.0
811.106794567968	0.09679999999999996	1.3953333333333333	1.0
811.106794567968	0.10673333333333329	1.4671999999999998	1.0
811.1121174183818	0.10649999999999996	1.4792	1.0
811.1121640929559	0.10649999999999996	1.3685333333333336	1.0
810.6233495401092	0.10259999999999996	1.3545333333333336	1.0
810.2371231688583	0.09869999999999995	1.3545333333333336	1.0
810.2371231688583	0.10139999999999996	1.3512000000000004	1.0
809.9400182845654	0.09603333333333329	1.2700000000000002	1.0
809.9407905437984	0.10276666666666663	1.225466666666667	1.0
809.45556735956	0.10093333333333329	1.2180000000000002	1.0
809.4559333593187	0.09499999999999996	1.1648000000000003	1.0
809.4559333593187	0.0880333333333333	1.1616	1.0
809.4559333593187	0.0986333333333333	1.2081333333333335	1.0
808.291099244039	0.09853333333333329	1.2377333333333336	1.0
808.1981850247652	0.09926666666666663	1.213066666666667	1.0
808.1981850247652	0.09123333333333329	1.1601333333333337	1.0
808.0982524254903	0.09123333333333329	1.2394666666666667	1.0
808.0982524254903	0.0974333333333333	1.2394666666666667	1.0
808.0091686692435	0.1019333333333333	1.2714666666666667	1.0
807.899690089387	0.09439999999999996	1.2400000000000002	1.0
807.8033629304753	0.10539999999999995	1.2789333333333335	1.0
807.8495612437424	0.09819999999999995	1.3217333333333336	1.0
807.8495612437424	0.09966666666666663	1.3865333333333334	1.0
807.3801508551078	0.1029333333333333	1.3212000000000002	1.0
807.4204665398809	0.09616666666666661	1.2284000000000004	1.0
807.029931418154	0.09783333333333329	1.16	1.0
807.0300528530817	0.10146666666666662	1.2860000000000005	1.0
807.0300528530817	0.10146666666666662	1.3168000000000002	1.0
806.207923103135	0.10029999999999996	1.263866666666667	1.0
806.0710230423541	0.10383333333333328	1.263866666666667	1.0
806.0743810744724	0.0955333333333333	1.2396000000000003	1.0
806.0743917350856	0.09636666666666663	1.2384000000000002	1.0
806.0743917350856	0.09639999999999996	1.2292000000000003	1.0
804.9144352700549	0.09973333333333328	1.2090666666666667	1.0
804.7228325999081	0.09863333333333328	1.1992000000000003	1.0
804.6262517678686	0.10073333333333329	1.2352000000000003	1.0
804.6373808429454	0.0955333333333333	1.217466666666667	1.0
804.6373808429454	0.09509999999999996	1.1594666666666669	1.0
804.4415402038629	0.09756666666666663	1.1633333333333336	1.0
804.43822085499	0.09463333333333329	1.1909333333333334	1.0
804.3436617919697	0.09463333333333329	1.1693333333333336	1.0
804.2494485936659	0.09046666666666663	1.1609333333333336	1.0
804.0520647479499	0.09279999999999997	1.1609333333333336	1.0
804.0520647479499	0.09843333333333329	1.1618666666666666	1.0
803.9660400083677	0.08776666666666662	1.1594666666666669	1.0
803.4847992352429	0.09726666666666663	1.1900000000000002	1.0
802.9040455175899	0.10149999999999997	1.2493333333333336	1.0
802.8127438916017	0.0972333333333333	1.2893333333333337	1.0
802.8127438916017	0.0987333333333333	1.1664000000000003	1.0
802.8127054766468	0.09836666666666663	1.2328000000000001	1.0
802.7199376149397	0.10403333333333328	1.3193333333333335	1.0
801.9450283087028	0.10066666666666663	1.2505333333333335	1.0
801.3884071820103	0.10066666666666663	1.159866666666667	1.0
801.3884071820103	0.0970666666666666	1.16	1.0
801.3874799728392	0.09736666666666662	1.16	1.0
801.1884540210132	0.0943333333333333	1.16	1.0
801.1900014244434	0.09216666666666663	1.2065333333333337	1.0
801.1899871593446	0.09596666666666663	1.3096000000000003	1.0
801.1899871593446	0.10693333333333328	1.315066666666667	1.0
801.1026798966345	0.09703333333333329	1.1973333333333336	1.0
801.0981073242044	0.0966333333333333	1.0870666666666666	1.0
801.0953122591368	0.09653333333333329	1.0797333333333334	1.0
800.9056842419153	0.0963333333333333	1.1268	1.0
800.9056842419153	0.09279999999999997	1.1421333333333332	1.0
800.4295474945161	0.09279999999999997	1.1644	1.0
800.5619409581109	0.09269999999999996	1.1700000000000002	1.0
800.3372260222269	0.0959333333333333	1.1700000000000002	1.0
