wavelength(nm)	flourescence PMT(V)	ti_saph Power (V)	Gain (V)
800.4335727018725	0.09903333333333329	1.16	1.0
800.4335727018725	0.0972333333333333	1.2204000000000004	1.0
800.8089715412808	0.10299999999999997	1.2302666666666668	1.0
800.8128616535545	0.0921333333333333	1.1574666666666666	1.0
801.0956099958763	0.09463333333333329	1.0865333333333334	1.0
801.0940474475152	0.09416666666666662	1.1077333333333335	1.0
801.0940474475152	0.09309999999999996	1.0797333333333334	1.0
801.0973702289681	0.09266666666666663	1.08	1.0
801.189656944786	0.08816666666666663	1.1101333333333334	1.0
801.1930060423281	0.09456666666666662	1.161066666666667	1.0
801.2799457670119	0.09456666666666662	1.246266666666667	1.0
801.2799457670119	0.09906666666666662	1.2256000000000002	1.0
801.2812453787333	0.09626666666666663	1.2256000000000002	1.0
801.3889299203252	0.09653333333333329	1.163866666666667	1.0
801.3889299203252	0.09239999999999995	1.0865333333333334	1.0
802.6241821036757	0.08683333333333329	1.1486666666666667	1.0
802.7200175347606	0.0958333333333333	1.1836000000000002	1.0
802.7200175347606	0.10169999999999997	1.3185333333333338	1.0
802.7210162248606	0.09746666666666663	1.2996000000000003	1.0
802.904696602946	0.10016666666666664	1.1766666666666667	1.0
803.484329964862	0.09259999999999996	1.1604	1.0
804.0570887914299	0.09486666666666663	1.2408000000000001	1.0
804.0570887914299	0.09486666666666663	1.2401333333333335	1.0
803.9660223802368	0.09636666666666663	1.182666666666667	1.0
804.3280907464996	0.09869999999999995	1.182666666666667	1.0
804.1524209007749	0.0929333333333333	1.1716000000000002	1.0
804.3461655717144	0.09816666666666662	1.171066666666667	1.0
804.3461655717144	0.09429999999999997	1.16	1.0
804.4333918204034	0.09546666666666662	1.16	1.0
804.3923846332477	0.09629999999999996	1.1081333333333334	1.0
804.7292216103783	0.09949999999999996	1.1297333333333335	1.0
804.7227404971801	0.09536666666666661	1.1585333333333336	1.0
804.7227404971801	0.09426666666666662	1.1625333333333332	1.0
804.6268658206692	0.0954333333333333	1.1908000000000003	1.0
804.8258851176853	0.0954333333333333	1.2757333333333336	1.0
805.7860046902853	0.09803333333333329	1.2133333333333336	1.0
806.0709522895007	0.09706666666666663	1.2133333333333336	1.0
806.0709405292112	0.09686666666666661	1.3086666666666669	1.0
806.0709405292112	0.09539999999999996	1.3177333333333334	1.0
806.0743501743216	0.10449999999999995	1.2965333333333335	1.0
806.2576087995462	0.09879999999999997	1.2701333333333336	1.0
806.2576087995462	0.09976666666666664	1.241866666666667	1.0
807.0316212041772	0.10453333333333328	1.2597333333333336	1.0
807.0316212041772	0.10169999999999996	1.276666666666667	1.0
807.5142051113532	0.09763333333333328	1.16	1.0
807.710279345196	0.09883333333333329	1.16	1.0
807.710279345196	0.09883333333333329	1.1604	1.0
807.7154472160064	0.09819999999999995	1.2078666666666669	1.0
807.7154472160064	0.09369999999999995	1.2078666666666669	1.0
807.8095686168405	0.09829999999999996	1.337866666666667	1.0
807.8044485640887	0.10036666666666663	1.3206666666666669	1.0
808.0834786768828	0.10416666666666662	1.3145333333333338	1.0
807.9986090157308	0.10449999999999995	1.2526666666666668	1.0
807.9986090157308	0.10006666666666662	1.2384000000000004	1.0
807.9985908916267	0.10016666666666664	1.241466666666667	1.0
808.1032663426339	0.10099999999999995	1.2714666666666667	1.0
808.1045615726	0.10506666666666663	1.2490666666666668	1.0
808.2919101982344	0.0989333333333333	1.2268000000000003	1.0
808.2919101982344	0.0989333333333333	1.2849333333333335	1.0
808.2919101982344	0.09646666666666662	1.294666666666667	1.0
809.362150867891	0.1079333333333333	1.2361333333333335	1.0
809.4525126475213	0.09609999999999998	1.2361333333333335	1.0
809.4525126475213	0.09876666666666663	1.2344000000000002	1.0
809.9375907028908	0.10106666666666662	1.2206666666666668	1.0
809.9375907028908	0.10246666666666662	1.2409333333333337	1.0
810.2357062004073	0.10156666666666662	1.2053333333333336	1.0
810.2357062004073	0.10056666666666662	1.297066666666667	1.0
810.6213761061762	0.10099999999999996	1.4024	1.0
811.1065225452934	0.09699999999999996	1.348666666666667	1.0
811.1065225452934	0.11119999999999995	1.4406666666666665	1.0
811.1065221204493	0.10663333333333329	1.4789333333333332	1.0
811.1056435324714	0.10663333333333329	1.4594666666666667	1.0
811.4089582246127	0.10249999999999995	1.3246666666666669	1.0
811.4977650809479	0.10099999999999995	1.3246666666666669	1.0
811.4977650809479	0.09959999999999997	1.3092000000000004	1.0
811.4075799480026	0.10526666666666662	1.3264000000000002	1.0
811.4999490165831	0.09879999999999996	1.279866666666667	1.0
811.5017022664192	0.09179999999999995	1.1673333333333336	1.0
811.5017022664192	0.09776666666666664	1.16	1.0
811.7946411908224	0.09639999999999996	1.16	1.0
811.7946411908224	0.0963333333333333	1.1600000000000001	1.0
812.6820656695994	0.10126666666666663	1.3604000000000003	1.0
812.6799826585836	0.09803333333333329	1.3257333333333337	1.0
813.1592492289034	0.09619999999999997	1.2762666666666669	1.0
813.0680516414826	0.09619999999999997	1.2752000000000001	1.0
813.0680516414826	0.09859999999999995	1.3674666666666668	1.0
814.0423843288937	0.10339999999999995	1.3674666666666668	1.0
814.0438555026941	0.09689999999999996	1.3321333333333336	1.0
814.0469371195768	0.09229999999999995	1.2945333333333338	1.0
814.5330303982627	0.09853333333333329	1.3085333333333335	1.0
814.5330303982627	0.09976666666666661	1.3977333333333333	1.0
814.739226773899	0.0998333333333333	1.4052	1.0
814.739226773899	0.09846666666666662	1.438133333333333	1.0
814.7370245257611	0.10156666666666662	1.4534666666666665	1.0
814.7360625559866	0.09973333333333328	1.4249333333333332	1.0
814.7360625559866	0.1009333333333333	1.4028	1.0
815.1326994971529	0.09849999999999996	1.2206666666666668	1.0
815.1309795439926	0.09849999999999996	1.3020000000000003	1.0
815.3201176542516	0.10009999999999997	1.3704000000000003	1.0
815.3200548659377	0.09809999999999995	1.3704000000000003	1.0
816.2095323841647	0.10516666666666663	1.3766666666666671	1.0
816.2095323841647	0.09199999999999996	1.2884000000000002	1.0
816.2042585562172	0.09399999999999996	1.16	1.0
816.2053746622199	0.08986666666666662	1.16	1.0
816.8128756679884	0.09646666666666663	1.260666666666667	1.0
817.5764494117459	0.09453333333333329	1.357466666666667	1.0
817.5764494117459	0.09126666666666662	1.3022666666666671	1.0
817.4004747893915	0.09639999999999996	1.3000000000000005	1.0
817.4953676425617	0.08943333333333328	1.1957333333333333	1.0
817.4951475301793	0.08943333333333328	1.1828	1.0
818.1944527812133	0.09403333333333329	1.2133333333333336	1.0
818.1944527812133	0.08969999999999996	1.2133333333333336	1.0
818.1944527812133	0.09443333333333329	1.3200000000000003	1.0
818.2921350883494	0.09223333333333329	1.2381333333333335	1.0
818.4966613155584	0.0887333333333333	1.193466666666667	1.0
818.5900309548903	0.08966666666666662	1.2574666666666667	1.0
818.5900309548903	0.09766666666666664	1.2561333333333335	1.0
818.594539443271	0.09199999999999996	1.2401333333333335	1.0
818.5931687076503	0.09076666666666662	1.3188000000000004	1.0
819.3913169369561	0.09313333333333328	1.3893333333333335	1.0
819.7883730174876	0.0886333333333333	1.3520000000000003	1.0
819.7883730174876	0.09029999999999996	1.3844	1.0
819.7924779446421	0.09029999999999996	1.3788000000000002	1.0
819.7883354432686	0.09519999999999997	1.3112000000000001	1.0
820.4961685636256	0.08986666666666662	1.3112000000000001	1.0
820.6847956517519	0.09373333333333331	1.363866666666667	1.0
820.7819312402082	0.09389999999999994	1.3525333333333336	1.0
820.7819312402082	0.08709999999999996	1.3201333333333336	1.0
820.9935349580528	0.09436666666666663	1.337866666666667	1.0
821.0854174774851	0.09223333333333329	1.4145333333333334	1.0
821.0854174774851	0.08829999999999996	1.4653333333333332	1.0
821.8880386607904	0.09213333333333329	1.48	1.0
821.8880386607904	0.09519999999999995	1.48	1.0
821.8909467081287	0.0879333333333333	1.4590666666666667	1.0
821.8890520047016	0.08916666666666662	1.3997333333333335	1.0
821.9844189916946	0.08916666666666662	1.3974666666666666	1.0
821.8900861140743	0.09163333333333329	1.3434666666666668	1.0
821.8900861140743	0.08786666666666662	1.3434666666666668	1.0
822.1922846263445	0.08676666666666662	1.3200000000000003	1.0
822.1950705999917	0.08266666666666662	1.3193333333333335	1.0
822.69138117135	0.08709999999999996	1.3133333333333337	1.0
823.5001594296708	0.09023333333333329	1.342	1.0
823.4980267148201	0.08679999999999996	1.4790666666666668	1.0
823.4980267148201	0.09089999999999997	1.48	1.0
823.9077505536651	0.08496666666666662	1.4797333333333331	1.0
823.9948674840457	0.08783333333333329	1.4587999999999999	1.0
824.0986011464182	0.08646666666666662	1.4584	1.0
824.0943077176304	0.08953333333333328	1.3953333333333333	1.0
824.0943077176304	0.08953333333333328	1.3649333333333333	1.0
824.4009427629485	0.0860333333333333	1.3649333333333333	1.0
824.4972181073799	0.08576666666666662	1.2981333333333336	1.0
824.7126747906723	0.08176666666666663	1.2490666666666668	1.0
824.8084844402429	0.08236666666666662	1.4257333333333335	1.0
824.8084844402429	0.08029999999999994	1.3872	1.0
825.2114522427952	0.08453333333333328	1.364	1.0
825.3094618936833	0.08096666666666662	1.4067999999999998	1.0
825.3094618936833	0.08733333333333328	1.4809333333333332	1.0
825.6160526159719	0.08716666666666663	1.4834666666666667	1.0
825.6151359626434	0.0866333333333333	1.4298666666666666	1.0
825.6151359626434	0.08709999999999996	1.3940000000000001	1.0
825.7146148034483	0.08709999999999996	1.319866666666667	1.0
825.717899641709	0.08329999999999996	1.3201333333333336	1.0
826.4237203994577	0.08296666666666662	1.3201333333333336	1.0
826.4237203994577	0.08316666666666662	1.4538666666666666	1.0
826.4237203994577	0.08333333333333329	1.4405333333333332	1.0
827.027904430893	0.08259999999999995	1.3390666666666668	1.0
827.0278592368202	0.08306666666666661	1.3981333333333332	1.0
827.3415388622919	0.08303333333333329	1.3896	1.0
827.7449392151597	0.08179999999999996	1.3696000000000002	1.0
827.7449392151597	0.07906666666666662	1.3226666666666669	1.0
827.8440209684777	0.08276666666666663	1.4742666666666666	1.0
827.9402322228825	0.08669999999999997	1.482	1.0
828.2518406047516	0.08269999999999995	1.5401333333333334	1.0
828.7584213219986	0.08269999999999995	1.393866666666667	1.0
828.8610085121486	0.08056666666666662	1.3356000000000001	1.0
828.8610085121486	0.07713333333333329	1.3356000000000001	1.0
828.7583042083695	0.08176666666666663	1.4137333333333333	1.0
829.2661754191622	0.07896666666666662	1.4714666666666665	1.0
829.3748312487999	0.08106666666666662	1.4013333333333333	1.0
829.4770967432681	0.08243333333333329	1.454	1.0
829.4770967432681	0.0788333333333333	1.5526666666666669	1.0
829.4988570914868	0.08436666666666663	1.4512	1.0
829.4762597939975	0.07993333333333329	1.3983999999999999	1.0
829.9832587300617	0.08156666666666662	1.3985333333333336	1.0
829.986294078632	0.08079999999999996	1.4535999999999998	1.0
829.986294078632	0.08186666666666662	1.414	1.0
830.3939166533597	0.08186666666666662	1.4808000000000001	1.0
830.4916384642412	0.08006666666666662	1.4808000000000001	1.0
830.9056964113234	0.0821333333333333	1.4574666666666667	1.0
830.9056964113234	0.07926666666666662	1.322266666666667	1.0
830.9056964113234	0.07943333333333329	1.3524000000000003	1.0
831.2140298291521	0.08073333333333328	1.4197333333333333	1.0
831.7223313951579	0.0823333333333333	1.5002666666666669	1.0
831.7222794740221	0.0821333333333333	1.4137333333333333	1.0
831.7261905187189	0.08036666666666661	1.392266666666667	1.0
832.1386192464322	0.08016666666666661	1.3369333333333335	1.0
832.1386192464322	0.08533333333333329	1.4666666666666666	1.0
832.1386192464322	0.08499999999999995	1.4302666666666668	1.0
832.5553402467091	0.08499999999999995	1.4757333333333333	1.0
832.6534322398206	0.08693333333333328	1.48	1.0
832.9631316062645	0.08543333333333329	1.48	1.0
832.9631316062645	0.08503333333333328	1.4790666666666665	1.0
832.9592792829635	0.08589999999999995	1.4	1.0
832.9630600005032	0.08356666666666662	1.3883999999999999	1.0
832.9630600005032	0.09213333333333329	1.3876000000000002	1.0
833.3758020253758	0.09479999999999995	1.4797333333333331	1.0
833.8902501770543	0.09486666666666664	1.4976	1.0
833.8902501770543	0.10089999999999996	1.4548	1.0
833.9861883405251	0.10586666666666662	1.2845333333333337	1.0
834.2012948152999	0.10949999999999996	1.243466666666667	1.0
834.3030760110197	0.11529999999999996	1.114	1.0
834.2990665283323	0.11529999999999996	0.9591999999999999	1.0
834.2990665283323	0.10376666666666663	0.9591999999999999	1.0
834.7229649963216	0.08566666666666663	0.3622666666666669	1.0
835.2330430238703	0.07913333333333329	0.24200000000000021	1.0
835.2329246521676	0.06653333333333328	0.05466666666666671	1.0
835.2332695476784	0.05986666666666661	0.009466666666666675	1.0
835.2332695476784	0.058366666666666615	0.00733333333333334	1.0
835.6411686015625	0.055233333333333266	-0.02666666666666669	1.0
835.8602553155558	0.055499999999999945	-0.029600000000000026	1.0
836.3745864580161	0.052699999999999934	-0.027200000000000023	1.0
836.2751391473015	0.05649999999999994	-0.02626666666666669	1.0
836.2751391473015	0.052199999999999934	-0.027333333333333355	1.0
836.5835566757203	0.052199999999999934	-0.026933333333333358	1.0
836.5832993080148	0.05753333333333328	-0.02853333333333336	1.0
836.9988121021889	0.05539999999999994	-0.02853333333333336	1.0
836.9900546965366	0.0561666666666666	-0.028000000000000025	1.0
837.1021860731796	0.057566666666666606	-0.030533333333333357	1.0
837.1021860731796	0.05566666666666661	-0.03200000000000003	1.0
837.4120530244695	0.05226666666666661	-0.028666666666666694	1.0
837.7275312787255	0.05319999999999994	-0.028800000000000027	1.0
837.7243208151757	0.05323333333333327	-0.028400000000000022	1.0
837.6813711262151	0.053633333333333276	-0.02853333333333336	1.0
837.6813711262151	0.05256666666666661	-0.027333333333333355	1.0
838.1447295151199	0.05429999999999994	-0.028266666666666693	1.0
838.1446650609814	0.05429999999999994	-0.030000000000000023	1.0
838.5616581556603	0.05423333333333327	-0.027733333333333356	1.0
838.9761769314783	0.05739999999999995	-0.027733333333333356	1.0
838.9761769314783	0.05516666666666661	-0.02680000000000002	1.0
839.0849349933966	0.05603333333333327	-0.029066666666666692	1.0
839.505188120874	0.0540666666666666	-0.02933333333333336	1.0
839.4002448047629	0.05603333333333327	-0.02786666666666669	1.0
839.5014156368462	0.05083333333333327	-0.025600000000000022	1.0
839.5014156368462	0.0532666666666666	-0.027600000000000027	1.0
839.8190003620059	0.05323333333333327	-0.02746666666666669	1.0
840.4445878040847	0.0548666666666666	-0.030000000000000023	1.0
840.444699557925	0.05336666666666661	-0.02933333333333336	1.0
840.8882073644463	0.05336666666666661	-0.02813333333333336	1.0
840.8638888947763	0.053566666666666596	-0.028266666666666693	1.0
840.8638888947763	0.05386666666666661	-0.028266666666666693	1.0
840.8682646276555	0.05336666666666661	-0.024133333333333354	1.0
840.8682646276555	0.05646666666666661	-0.029066666666666692	1.0
841.2837943195351	0.058099999999999936	-0.029066666666666692	1.0
841.3957169645399	0.053899999999999934	-0.025733333333333355	1.0
841.3957169645399	0.05209999999999994	-0.02786666666666669	1.0
841.6035761496578	0.05563333333333328	-0.028666666666666694	1.0
841.7029538243472	0.0542666666666666	-0.02586666666666669	1.0
841.9159229959882	0.05613333333333327	-0.02746666666666669	1.0
842.1281781651345	0.05569999999999993	-0.027200000000000023	1.0
842.1281781651345	0.052733333333333264	-0.026533333333333357	1.0
842.5535695298069	0.052733333333333264	-0.025333333333333357	1.0
842.9664929947498	0.0520666666666666	-0.02813333333333336	1.0
843.0742813485515	0.05509999999999995	-0.02813333333333336	1.0
843.0706725140338	0.057833333333333264	-0.02586666666666669	1.0
843.3962411728854	0.054733333333333266	-0.030400000000000028	1.0
843.3962411728854	0.05599999999999993	-0.029600000000000026	1.0
843.710158950724	0.0537666666666666	-0.029600000000000026	1.0
844.3510433146929	0.05659999999999994	-0.029066666666666692	1.0
844.3453842463756	0.05649999999999994	-0.030400000000000028	1.0
844.5567089997908	0.05483333333333327	-0.02853333333333336	1.0
844.5567089997908	0.05526666666666662	-0.030666666666666693	1.0
844.6585946831002	0.05349999999999994	-0.029066666666666692	1.0
844.7728631816946	0.05349999999999994	-0.029066666666666692	1.0
844.7751766212031	0.05359999999999993	-0.03080000000000003	1.0
842.7621936099439	0.056099999999999935	-0.029600000000000026	1.0
842.6544687897258	0.0528666666666666	-0.02813333333333336	1.0
842.6544687897258	0.05666666666666661	-0.02746666666666669	1.0
842.6544687897258	0.05666666666666661	-0.02626666666666669	1.0
842.129596717309	0.052166666666666604	-0.02626666666666669	1.0
841.7056412025461	0.05413333333333327	-0.028933333333333356	1.0
841.6039613125603	0.05346666666666661	-0.026133333333333356	1.0
841.6434776778425	0.05279999999999994	-0.02933333333333336	1.0
841.6434776778425	0.05643333333333327	-0.02626666666666669	1.0
841.528578317756	0.055333333333333276	-0.02933333333333336	1.0
840.9686262865426	0.053566666666666596	-0.02680000000000002	1.0
840.963426577888	0.055733333333333274	-0.02946666666666669	1.0
840.8689843381051	0.052699999999999934	-0.026400000000000024	1.0
840.8687176080433	0.05279999999999994	-0.028266666666666693	1.0
840.8687176080433	0.0536666666666666	-0.026933333333333358	1.0
840.3470860237848	0.0536666666666666	-0.02506666666666669	1.0
840.3470860237848	0.050999999999999934	-0.028933333333333356	1.0
839.9201297829228	0.05879999999999993	-0.028933333333333356	1.0
839.5017093659283	0.055499999999999945	-0.029866666666666694	1.0
839.5017093659283	0.052699999999999934	-0.028666666666666694	1.0
839.4013168542784	0.0552666666666666	-0.02946666666666669	1.0
839.5062691682367	0.05693333333333328	-0.02746666666666669	1.0
839.0740573664353	0.0501666666666666	-0.02506666666666669	1.0
839.0830220654788	0.0561666666666666	-0.02973333333333336	1.0
839.0830220654788	0.0537666666666666	-0.028000000000000025	1.0
838.875684708609	0.05226666666666661	-0.026533333333333357	1.0
838.146146928361	0.0527666666666666	-0.027600000000000027	1.0
838.2481512855869	0.05656666666666661	-0.02933333333333336	1.0
838.1400158626438	0.05656666666666661	-0.024133333333333354	1.0
837.7247835395236	0.0537666666666666	-0.024133333333333354	1.0
837.7247835395236	0.05563333333333328	-0.02586666666666669	1.0
837.7277474910143	0.05653333333333326	-0.02853333333333336	1.0
837.4154461750404	0.053366666666666604	-0.02680000000000002	1.0
837.4156747918566	0.05006666666666659	-0.024533333333333355	1.0
836.9997287545666	0.05239999999999994	-0.02506666666666669	1.0
836.9997287545666	0.054199999999999936	-0.028266666666666693	1.0
836.7504954024138	0.0511666666666666	-0.02853333333333336	1.0
836.6807531649541	0.05399999999999994	-0.028000000000000025	1.0
836.798194908475	0.05103333333333327	-0.02680000000000002	1.0
836.2626118272599	0.05103333333333327	-0.02666666666666669	1.0
836.2626118272599	0.054166666666666606	-0.029066666666666692	1.0
836.0665051858482	0.05229999999999994	-0.029066666666666692	1.0
836.0575289233191	0.053166666666666605	-0.024533333333333355	1.0
835.9843002895972	0.056733333333333275	-0.026533333333333357	1.0
835.7528094184029	0.054733333333333266	-0.027333333333333355	1.0
835.7528094184029	0.05753333333333328	-0.028400000000000022	1.0
835.4376635409174	0.06079999999999994	-0.015200000000000014	1.0
835.3450669416382	0.05799999999999995	0.00040000000000000034	1.0
835.0288736739167	0.06929999999999994	0.07306666666666674	1.0
834.7179041291431	0.07819999999999995	0.2036000000000002	1.0
834.7179041291431	0.08903333333333328	0.3589333333333335	1.0
834.5136149060814	0.08903333333333328	0.8867999999999999	1.0
834.1940283106613	0.10453333333333328	1.0964	1.0
833.9906670197997	0.1095666666666666	1.0964	1.0
833.8951918259031	0.10636666666666664	1.2673333333333336	1.0
833.8951918259031	0.10233333333333329	1.295066666666667	1.0
833.8951918259031	0.1025333333333333	1.3574666666666666	1.0
833.3757349679338	0.10233333333333329	1.5073333333333332	1.0
833.3719724984513	0.0919333333333333	1.5590666666666668	1.0
832.9632615223904	0.09569999999999995	1.560266666666667	1.0
832.9631185256907	0.0876333333333333	1.3962666666666665	1.0
832.9631185256907	0.08509999999999995	1.3884000000000003	1.0
832.963097266849	0.08696666666666664	1.4009333333333334	1.0
832.963097266849	0.08696666666666664	1.48	1.0
832.5560808667113	0.0867333333333333	1.5078666666666667	1.0
832.1386961336299	0.08683333333333329	1.5078666666666667	1.0
832.1386961336299	0.08379999999999996	1.4733333333333334	1.0
831.7251433159933	0.08186666666666662	1.4392	1.0
831.7251365896459	0.07866666666666662	1.3785333333333336	1.0
831.5280736232587	0.0805333333333333	1.4012	1.0
831.1150117010793	0.0874333333333333	1.5329333333333333	1.0
831.116485001108	0.08279999999999997	1.4453333333333334	1.0
831.116485001108	0.08353333333333329	1.3728000000000002	1.0
831.1104231606625	0.07843333333333329	1.3272000000000004	1.0
830.4938946062294	0.0753333333333333	1.4258666666666666	1.0
830.3997353079033	0.08193333333333329	1.5304	1.0
830.3991036879645	0.08193333333333329	1.6329333333333331	1.0
830.3991036879645	0.08426666666666663	1.6278666666666666	1.0
829.8858109298462	0.08209999999999995	1.6278666666666666	1.0
829.4718823413755	0.07633333333333328	1.4785333333333333	1.0
829.3806491226966	0.08593333333333329	1.48	1.0
829.3799096419125	0.07886666666666661	1.3948000000000003	1.0
829.3799096419125	0.08399999999999996	1.4330666666666665	1.0
829.4810374003998	0.07826666666666662	1.4125333333333332	1.0
829.274275488244	0.07896666666666663	1.3952000000000002	1.0
829.274275488244	0.08016666666666661	1.3453333333333335	1.0
828.8630013194813	0.08139999999999996	1.4071999999999998	1.0
828.8630013194813	0.08016666666666662	1.3872	1.0
828.2543360436105	0.08016666666666662	1.3808000000000005	1.0
828.2543550715853	0.07799999999999994	1.4707999999999999	1.0
828.0442490564701	0.07933333333333328	1.4707999999999999	1.0
827.7476205628936	0.08346666666666662	1.5221333333333333	1.0
827.7474448568929	0.08099999999999996	1.48	1.0
827.7474448568929	0.08409999999999995	1.48	1.0
827.7474448568929	0.08343333333333329	1.4060000000000001	1.0
827.0325800175992	0.08536666666666662	1.4025333333333334	1.0
826.830245106859	0.08286666666666662	1.3946666666666665	1.0
826.5229041271605	0.08259999999999995	1.3982666666666668	1.0
826.5229041271605	0.08066666666666662	1.3224000000000002	1.0
826.1156581992917	0.08279999999999997	1.4627999999999997	1.0
825.7157573320812	0.08246666666666663	1.4330666666666667	1.0
825.7164184092443	0.08246666666666663	1.343866666666667	1.0
825.6160276144652	0.08599999999999995	1.3684	1.0
825.6160276144652	0.08173333333333328	1.3684	1.0
825.6134319944035	0.08159999999999995	1.3862666666666668	1.0
825.6134319944035	0.08669999999999996	1.48	1.0
825.3088612412271	0.09403333333333329	1.5006666666666668	1.0
825.3088612412271	0.08639999999999996	1.4829333333333332	1.0
825.3088612412271	0.0839666666666666	1.4554666666666667	1.0
824.8063091094151	0.08689999999999995	1.4485333333333332	1.0
824.400842192422	0.08169999999999995	1.3776000000000004	1.0
824.40086797248	0.08956666666666663	1.3220000000000003	1.0
824.4018347598325	0.07836666666666663	1.3189333333333335	1.0
824.4018347598325	0.08386666666666662	1.3490666666666669	1.0
824.4018347598325	0.08386666666666662	1.3905333333333336	1.0
823.8969401890598	0.08416666666666663	1.3708000000000005	1.0
823.7974938863426	0.08496666666666662	1.3708000000000005	1.0
823.4967307830507	0.08289999999999996	1.3982666666666668	1.0
823.4967307830507	0.08823333333333329	1.48	1.0
823.4967307830507	0.0918333333333333	1.48	1.0
822.6935132834617	0.08833333333333329	1.4790666666666665	1.0
822.4855128791809	0.08936666666666662	1.3762666666666667	1.0
822.1820902742161	0.08806666666666661	1.3206666666666669	1.0
822.1923189345431	0.08816666666666663	1.3308000000000002	1.0
822.1923189345431	0.08459999999999997	1.3348000000000002	1.0
821.8913502506788	0.09096666666666663	1.4044	1.0
821.8913435729261	0.09096666666666663	1.4706666666666666	1.0
821.8845384026001	0.09253333333333329	1.4434666666666665	1.0
821.5851629566387	0.09243333333333327	1.4434666666666665	1.0
821.5851629566387	0.09279999999999997	1.4682666666666666	1.0
821.5850738381993	0.09579999999999995	1.48	1.0
821.0858524280175	0.09269999999999996	1.48	1.0
821.0842696073393	0.08859999999999994	1.4744	1.0
820.588934013332	0.08929999999999995	1.3960000000000001	1.0
820.5904960522015	0.08983333333333329	1.3276000000000003	1.0
820.5904960522015	0.0918333333333333	1.4092	1.0
820.1867428939399	0.09439999999999996	1.3590666666666669	1.0
819.7915448673779	0.08886666666666664	1.3092000000000001	1.0
819.78608841271	0.08886666666666664	1.3873333333333335	1.0
818.6986377092597	0.08909999999999997	1.3489333333333335	1.0
818.6986377092597	0.09099999999999997	1.3489333333333335	1.0
818.5938296326165	0.09049999999999994	1.3492000000000004	1.0
818.5924934882293	0.09289999999999995	1.3193333333333335	1.0
818.5901535664077	0.08746666666666662	1.2402666666666669	1.0
818.5901535664077	0.09226666666666662	1.2385333333333335	1.0
818.5901535664077	0.09213333333333329	1.257466666666667	1.0
818.2893664906634	0.0904333333333333	1.2385333333333335	1.0
818.2886296020628	0.08996666666666663	1.2913333333333337	1.0
817.7940007294228	0.09349999999999996	1.3625333333333336	1.0
817.4986591484898	0.09116666666666662	1.225866666666667	1.0
817.4986591484898	0.09253333333333329	1.173066666666667	1.0
817.3048188775325	0.09253333333333329	1.2681333333333336	1.0
817.4963481090003	0.09126666666666662	1.2681333333333336	1.0
816.9475055624199	0.09899999999999996	1.3181333333333336	1.0
816.8087125916118	0.09319999999999995	1.3209333333333335	1.0
816.8087125916118	0.09409999999999996	1.3300000000000003	1.0
816.2055321478425	0.09303333333333329	1.2325333333333337	1.0
815.3206226290396	0.08896666666666662	1.173066666666667	1.0
815.3234158023149	0.10279999999999995	1.3753333333333335	1.0
815.3216104009721	0.1017333333333333	1.3730666666666669	1.0
815.1307705630745	0.09873333333333328	1.2828000000000002	1.0
815.1307705630745	0.09376666666666662	1.1952000000000003	1.0
814.7358866833464	0.09759999999999995	1.4261333333333335	1.0
814.740324108376	0.09759999999999995	1.4417333333333333	1.0
814.7381142728485	0.1043333333333333	1.4425333333333332	1.0
814.7390124895452	0.09553333333333328	1.4425333333333332	1.0
814.7390124895452	0.10126666666666663	1.4596	1.0
814.7390124895452	0.1017333333333333	1.434	1.0
814.3433857909265	0.0954333333333333	1.4004	1.0
814.3433857909265	0.10136666666666663	1.2410666666666668	1.0
814.0467103478874	0.09709999999999996	1.2405333333333337	1.0
814.0467103478874	0.09743333333333329	1.243466666666667	1.0
813.1645439329568	0.09746666666666663	1.382266666666667	1.0
813.162250976217	0.09586666666666663	1.383866666666667	1.0
812.8617697937266	0.09936666666666663	1.3565333333333334	1.0
812.6768083181125	0.09559999999999995	1.3905333333333336	1.0
811.7978141305773	0.09559999999999995	1.3777333333333335	1.0
811.7978141305773	0.10056666666666662	1.3201333333333336	1.0
811.8018800559698	0.10439999999999995	1.3201333333333336	1.0
811.5033327838931	0.09869999999999995	1.3181333333333336	1.0
811.5022913602924	0.09356666666666662	1.1602666666666668	1.0
811.5007592010669	0.09669999999999995	1.1605333333333336	1.0
811.5007592010669	0.09783333333333329	1.2285333333333335	1.0
811.5007592010669	0.10586666666666662	1.282666666666667	1.0
811.309693615519	0.10709999999999996	1.3204000000000002	1.0
811.1119542515817	0.10513333333333329	1.3934666666666666	1.0
811.111112776838	0.11103333333333329	1.4615999999999998	1.0
811.111112776838	0.10483333333333328	1.4797333333333331	1.0
811.1097990156705	0.10463333333333329	1.4708	1.0
810.9100534093888	0.10463333333333329	1.3384000000000003	1.0
810.5153944388802	0.10199999999999995	1.3393333333333335	1.0
810.2342831937215	0.09926666666666663	1.3393333333333335	1.0
810.2342831937215	0.09826666666666663	1.2689333333333335	1.0
809.9372456532069	0.09366666666666662	1.162666666666667	1.0
809.5473146502222	0.09666666666666662	1.2429333333333334	1.0
809.5473146502222	0.09299999999999996	1.1988000000000003	1.0
809.5473146502222	0.09533333333333328	1.1965333333333334	1.0
809.4493936007432	0.09226666666666662	1.2188000000000003	1.0
809.4493936007432	0.09749999999999995	1.2496000000000003	1.0
808.291218883019	0.09789999999999996	1.2772000000000003	1.0
808.0982634731857	0.09456666666666662	1.2194666666666667	1.0
808.0992460893162	0.09456666666666662	1.2232000000000003	1.0
807.9963988663868	0.09426666666666662	1.2565333333333335	1.0
807.9963988663868	0.10116666666666663	1.2565333333333335	1.0
807.8986773230081	0.10323333333333329	1.2400000000000002	1.0
807.8994564212044	0.09969999999999996	1.2374666666666667	1.0
807.8077254482598	0.10039999999999996	1.2493333333333336	1.0
807.7154129054628	0.10083333333333329	1.3202666666666667	1.0
807.7154129054628	0.09706666666666662	1.3173333333333337	1.0
807.7154577704597	0.09623333333333328	1.235466666666667	1.0
807.4181335591619	0.09563333333333329	1.1625333333333334	1.0
807.0308593702226	0.09329999999999995	1.185866666666667	1.0
806.9390451202988	0.10806666666666663	1.289066666666667	1.0
806.9390451202988	0.09129999999999995	1.2265333333333337	1.0
806.9390451202988	0.09129999999999995	1.2268000000000001	1.0
806.0743938094495	0.0955333333333333	1.2201333333333335	1.0
806.0743920109021	0.10013333333333328	1.2201333333333335	1.0
806.0753701461297	0.09859999999999997	1.225466666666667	1.0
804.8673989510467	0.0937333333333333	1.1917333333333338	1.0
804.8673989510467	0.09649999999999996	1.2148	1.0
804.6266953374273	0.09549999999999996	1.1873333333333336	1.0
804.6272207319935	0.1007333333333333	1.196266666666667	1.0
804.6269406960615	0.09296666666666663	1.1606666666666667	1.0
804.4417683207045	0.09199999999999996	1.1521333333333332	1.0
804.4417683207045	0.09376666666666662	1.1602666666666668	1.0
804.4391474932247	0.09479999999999997	1.1757333333333335	1.0
804.2500516159522	0.09479999999999997	1.1673333333333336	1.0
804.1496964687371	0.09779999999999997	1.1717333333333337	1.0
804.0573156852013	0.09973333333333328	1.1717333333333337	1.0
804.0573156852013	0.09173333333333329	1.1641333333333335	1.0
803.7677356815362	0.09719999999999995	1.214666666666667	1.0
803.3902099259425	0.10193333333333328	1.2508000000000001	1.0
802.7219578048973	0.09969999999999997	1.2604000000000002	1.0
802.7219452160574	0.09313333333333329	1.221466666666667	1.0
802.7199074276117	0.09649999999999996	1.257066666666667	1.0
802.7199074276117	0.09749999999999995	1.3146666666666669	1.0
802.337076728625	0.09393333333333329	1.1758666666666668	1.0
801.3846372520908	0.0973333333333333	1.1617333333333337	1.0
801.2827015590334	0.0973333333333333	1.1602666666666668	1.0
801.2836613395928	0.09596666666666663	1.2101333333333335	1.0
801.2836613395928	0.10009999999999995	1.2101333333333335	1.0
801.1900412634584	0.09769999999999995	1.237066666666667	1.0
801.193776393753	0.09656666666666663	1.2366666666666668	1.0
801.1853913765623	0.09576666666666662	1.2808000000000002	1.0
801.0976613703999	0.09029999999999995	1.1736000000000002	1.0
801.0976613703999	0.09063333333333329	1.0821333333333334	1.0
801.0999610700388	0.09086666666666661	1.08	1.0
801.0999610700388	0.09113333333333329	1.1204	1.0
800.6260464423073	0.09526666666666664	1.1473333333333335	1.0
800.3407964109141	0.09526666666666662	1.1925333333333334	1.0
800.3407964109141	0.09153333333333329	1.1401333333333334	1.0
800.7291130987018	0.09153333333333329	1.1756000000000002	1.0
