wavelength(nm)	flourescence PMT(V)	ti_saph Power (V)	Gain (V)
800.430659382408	0.09353333333333329	1.2560000000000002	1.0
800.3364223004387	0.09336666666666661	1.2353333333333334	1.0
800.3364223004387	0.09513333333333329	1.2201333333333335	1.0
800.8118517107375	0.08926666666666662	1.1556000000000002	1.0
800.9022631727571	0.09399999999999996	1.0863999999999998	1.0
801.0943192611694	0.08696666666666662	1.08	1.0
801.0910871505832	0.08696666666666662	1.082266666666667	1.0
801.0910871505832	0.0884333333333333	1.1549333333333334	1.0
801.1954993047639	0.09189999999999995	1.1549333333333334	1.0
801.1937637370717	0.09503333333333329	1.253466666666667	1.0
801.285069678403	0.09496666666666663	1.2760000000000002	1.0
801.3852927597643	0.09576666666666662	1.1972	1.0
801.3891485999103	0.09259999999999996	1.16	1.0
801.3891485999103	0.08973333333333329	1.16	1.0
801.3891485999103	0.09566666666666662	1.1597333333333333	1.0
802.7210388631112	0.09833333333333329	1.2476000000000003	1.0
802.7210369525442	0.10476666666666663	1.3200000000000003	1.0
802.8098276102032	0.10149999999999997	1.2877333333333334	1.0
802.8098276102032	0.10149999999999997	1.2153333333333334	1.0
803.388011052499	0.0966333333333333	1.2360000000000002	1.0
803.388011052499	0.09446666666666663	1.2360000000000002	1.0
804.1442982148657	0.1001333333333333	1.2364000000000002	1.0
804.1513444135206	0.09796666666666663	1.2117333333333336	1.0
804.1513444135206	0.0996333333333333	1.1614666666666669	1.0
804.2494125346403	0.0881333333333333	1.1614666666666669	1.0
804.3432772503846	0.09876666666666663	1.175066666666667	1.0
804.4353881301532	0.09459999999999996	1.16	1.0
804.4387251482966	0.09419999999999995	1.1548000000000003	1.0
804.4387251482966	0.09469999999999995	1.114	1.0
804.437474163312	0.09406666666666663	1.148266666666667	1.0
804.6228869494435	0.09406666666666663	1.16	1.0
804.6277507286806	0.0947333333333333	1.1625333333333332	1.0
804.9157550840154	0.09196666666666661	1.1625333333333332	1.0
804.9157550840154	0.10039999999999996	1.2469333333333334	1.0
804.8273804011424	0.09396666666666663	1.2133333333333336	1.0
806.0750218501953	0.0992333333333333	1.219466666666667	1.0
806.0750218501953	0.09836666666666663	1.2810666666666668	1.0
806.0709759510338	0.1006333333333333	1.2698666666666667	1.0
806.0709759510338	0.1021333333333333	1.2824	1.0
806.0744566392234	0.09843333333333329	1.2826666666666668	1.0
806.9359298445271	0.09899999999999996	1.236266666666667	1.0
807.0292710598424	0.09739999999999994	1.277066666666667	1.0
807.0309839791958	0.09739999999999994	1.3592000000000004	1.0
807.4191909311528	0.0981333333333333	1.2185333333333335	1.0
807.4191909311528	0.09643333333333329	1.2185333333333335	1.0
807.7112540120145	0.09609999999999996	1.1602666666666668	1.0
807.8044498929171	0.09423333333333328	1.1734666666666669	1.0
807.8054277329511	0.10396666666666664	1.3233333333333337	1.0
807.8997336638126	0.10319999999999996	1.3864000000000003	1.0
807.8997336638126	0.10009999999999995	1.3189333333333335	1.0
807.8997336638126	0.09753333333333329	1.2537333333333336	1.0
807.905148496015	0.10223333333333329	1.2400000000000002	1.0
807.899684063437	0.10219999999999997	1.2802666666666669	1.0
808.193645186592	0.0986333333333333	1.3126666666666669	1.0
808.193645186592	0.0928333333333333	1.2472	1.0
808.2892450731897	0.0928333333333333	1.1898666666666669	1.0
808.1979666194172	0.09716666666666662	1.186666666666667	1.0
809.3623112182693	0.09506666666666662	1.186666666666667	1.0
809.3623112182693	0.10089999999999996	1.306666666666667	1.0
809.3623112182693	0.09776666666666661	1.2768000000000002	1.0
809.4576798237242	0.09856666666666662	1.2385333333333335	1.0
809.549073211205	0.09816666666666662	1.2190666666666667	1.0
809.9362786370141	0.09896666666666662	1.2053333333333336	1.0
810.2381993987759	0.0993333333333333	1.2609333333333337	1.0
810.2381993987759	0.08906666666666663	1.187066666666667	1.0
810.6235317350014	0.09959999999999997	1.2248	1.0
810.6235606749024	0.10139999999999996	1.3584000000000003	1.0
810.719482534163	0.10139999999999996	1.3253333333333337	1.0
810.719482534163	0.10046666666666662	1.4316	1.0
810.719482534163	0.10193333333333329	1.4316	1.0
811.1046367507952	0.1038333333333333	1.4762666666666666	1.0
811.1088983408454	0.1059333333333333	1.48	1.0
811.3087108564096	0.10439999999999997	1.3982666666666668	1.0
811.308770330515	0.10096666666666664	1.3201333333333336	1.0
811.4059988067278	0.10169999999999996	1.3230666666666668	1.0
811.4059988067278	0.09879999999999997	1.2913333333333337	1.0
811.4989396718693	0.09796666666666662	1.1816	1.0
811.4983200183972	0.09179999999999995	1.16	1.0
811.7899084011694	0.08913333333333329	1.16	1.0
811.7998013714003	0.08913333333333329	1.16	1.0
811.7998013714003	0.09459999999999996	1.2182666666666668	1.0
812.6748305818949	0.09323333333333328	1.2182666666666668	1.0
812.6376915784767	0.10069999999999996	1.3996	1.0
813.1633690853283	0.1007333333333333	1.3773333333333335	1.0
813.1593598187934	0.09559999999999995	1.3046666666666669	1.0
813.1593598187934	0.10143333333333328	1.3780000000000001	1.0
813.1613098134353	0.09883333333333329	1.4361333333333335	1.0
813.1613098134353	0.09879999999999996	1.3236000000000003	1.0
814.042777134975	0.0956333333333333	1.2409333333333337	1.0
814.7376719712255	0.09963333333333328	1.3121333333333336	1.0
814.7376719712255	0.09739999999999996	1.3916000000000002	1.0
814.7382817509978	0.09739999999999996	1.4253333333333333	1.0
814.7371077892832	0.09496666666666663	1.4385333333333332	1.0
814.7398368739433	0.1016333333333333	1.4385333333333332	1.0
814.7372646368138	0.10276666666666663	1.4505333333333332	1.0
814.7372646368138	0.09886666666666663	1.4228	1.0
815.1339310983568	0.09526666666666664	1.3597333333333337	1.0
815.323396133094	0.09273333333333329	1.1612	1.0
815.322401467747	0.09149999999999996	1.2814666666666668	1.0
815.3234026361685	0.09549999999999995	1.3298666666666668	1.0
816.2075603921329	0.1034333333333333	1.3345333333333336	1.0
816.2075603921329	0.09376666666666662	1.1617333333333337	1.0
816.9020453900135	0.09179999999999996	1.1605333333333336	1.0
816.9968463982573	0.0996333333333333	1.3345333333333336	1.0
817.4003421402189	0.0996333333333333	1.3196000000000003	1.0
817.4008467636677	0.09219999999999996	1.3196000000000003	1.0
817.4008467636677	0.10066666666666663	1.3270666666666668	1.0
817.4008016498656	0.09989999999999995	1.3250666666666668	1.0
817.7986716832135	0.09266666666666662	1.2886666666666668	1.0
817.7986716832135	0.0867333333333333	1.2364000000000002	1.0
818.194935192411	0.0991333333333333	1.3226666666666669	1.0
818.194935192411	0.08693333333333329	1.2426666666666668	1.0
818.194935192411	0.09289999999999997	1.1973333333333336	1.0
818.2867212089054	0.09406666666666662	1.2093333333333336	1.0
818.5901309108438	0.08983333333333329	1.243466666666667	1.0
818.5901309108438	0.09209999999999996	1.2396000000000003	1.0
818.5901309108438	0.09209999999999996	1.2440000000000002	1.0
818.5935955128286	0.08859999999999994	1.3169333333333335	1.0
818.5960185428502	0.0918333333333333	1.3169333333333335	1.0
819.3868341101661	0.09536666666666661	1.3854666666666668	1.0
819.7915935119902	0.09436666666666663	1.3810666666666669	1.0
819.7915935119902	0.09796666666666662	1.365733333333334	1.0
819.7899179739229	0.09166666666666662	1.367466666666667	1.0
819.7916529006785	0.09089999999999997	1.3569333333333338	1.0
820.5893026072594	0.08769999999999996	1.3440000000000003	1.0
820.590454940881	0.09316666666666663	1.352666666666667	1.0
820.7798256015924	0.09216666666666663	1.3253333333333337	1.0
820.7798256015924	0.09063333333333327	1.3730666666666669	1.0
820.9878664686186	0.09063333333333327	1.4615999999999998	1.0
821.0880356499737	0.09009999999999996	1.4510666666666665	1.0
821.7903063120486	0.09206666666666662	1.4510666666666665	1.0
821.8889627304153	0.09179999999999996	1.446533333333333	1.0
821.8889627304153	0.09326666666666664	1.48	1.0
821.8892770069906	0.09446666666666663	1.4351999999999998	1.0
821.8890604130015	0.09286666666666661	1.4002666666666668	1.0
821.8890604130015	0.08756666666666663	1.3996	1.0
821.8864301771987	0.09039999999999995	1.4	1.0
821.8864301771987	0.09096666666666661	1.3224000000000002	1.0
822.1961350114051	0.09056666666666663	1.3200000000000003	1.0
822.1776543487113	0.08719999999999996	1.2933333333333337	1.0
822.2919531665142	0.09056666666666663	1.3189333333333335	1.0
822.6914610204187	0.09056666666666663	1.3770666666666667	1.0
822.6914610204187	0.09029999999999996	1.3770666666666667	1.0
823.4997739004224	0.09249999999999996	1.4798666666666669	1.0
823.5392698635072	0.09013333333333329	1.4797333333333333	1.0
823.9949165503373	0.08826666666666662	1.4692	1.0
824.0997897934583	0.09046666666666663	1.4662666666666666	1.0
824.4006016811963	0.08486666666666662	1.4777333333333333	1.0
824.4006016811963	0.08976666666666662	1.3710666666666669	1.0
824.4003679661638	0.0849333333333333	1.309066666666667	1.0
824.4003679661638	0.08013333333333329	1.2617333333333334	1.0
824.9026717196749	0.08866666666666663	1.4696	1.0
825.2117259283832	0.08866666666666663	1.3524	1.0
825.2117259283832	0.0893333333333333	1.4044	1.0
825.3047736747412	0.08239999999999995	1.4044	1.0
825.3074091455047	0.08723333333333329	1.4805333333333333	1.0
825.6124323834108	0.09039999999999995	1.5458666666666667	1.0
825.6152236597474	0.0875333333333333	1.4809333333333332	1.0
825.6152236597474	0.08366666666666661	1.4486666666666665	1.0
825.6170470024618	0.08576666666666662	1.4189333333333334	1.0
825.7136359324103	0.08896666666666662	1.3940000000000001	1.0
825.7179838185396	0.08496666666666662	1.3533333333333337	1.0
826.4286790338288	0.0816333333333333	1.3557333333333337	1.0
826.4286790338288	0.08479999999999996	1.4773333333333334	1.0
826.5234516214892	0.08166666666666662	1.3369333333333338	1.0
826.9336719128703	0.08166666666666662	1.393066666666667	1.0
827.0279838704276	0.08459999999999997	1.4008	1.0
827.2388884796446	0.08203333333333328	1.4008	1.0
827.2388884796446	0.08476666666666663	1.3983999999999999	1.0
827.2388884796446	0.08486666666666662	1.3476000000000004	1.0
827.8355627486495	0.08519999999999996	1.3481333333333334	1.0
827.9400076046802	0.08676666666666662	1.4770666666666667	1.0
828.052738041863	0.08253333333333328	1.48	1.0
828.6561136753345	0.08393333333333329	1.504	1.0
828.6561136753345	0.08226666666666661	1.4036000000000002	1.0
828.7572847642157	0.08993333333333328	1.3750666666666669	1.0
828.8610557879471	0.08606666666666662	1.3808	1.0
829.2711929953044	0.08606666666666662	1.48	1.0
829.2719878987504	0.08726666666666662	1.446	1.0
829.2719878987504	0.08183333333333329	1.446	1.0
829.3748289193625	0.08306666666666662	1.4781333333333333	1.0
829.4762721808643	0.08729999999999996	1.48	1.0
829.471902024793	0.07996666666666663	1.3916000000000002	1.0
829.9852374991046	0.08309999999999995	1.344666666666667	1.0
829.9852374991046	0.07823333333333328	1.4073333333333335	1.0
829.8878957844644	0.07929999999999997	1.4775999999999998	1.0
830.3942374675753	0.08446666666666662	1.5022666666666666	1.0
830.3970853319512	0.0841333333333333	1.4873333333333334	1.0
830.4911208248948	0.08329999999999996	1.48	1.0
831.1124760775748	0.08329999999999996	1.4005333333333334	1.0
831.1124760775748	0.08089999999999996	1.3901333333333334	1.0
825.8218266314489	0.07846666666666662	1.3901333333333334	1.0
831.7226449679454	0.08209999999999996	1.48	1.0
831.725107849003	0.0865333333333333	1.5029333333333332	1.0
831.9431874609274	0.0831333333333333	1.3954666666666669	1.0
831.9431874609274	0.07503333333333329	1.3816000000000002	1.0
832.1377188272664	0.08229999999999996	1.4557333333333333	1.0
832.5498281219911	0.08133333333333329	1.466	1.0
832.5498281219911	0.08576666666666663	1.48	1.0
832.9631165768577	0.09206666666666662	1.48	1.0
832.9631165768577	0.08959999999999996	1.4267999999999998	1.0
832.9631668980429	0.08316666666666661	1.3853333333333333	1.0
833.05833496049	0.08316666666666661	1.3390666666666668	1.0
833.3790514486684	0.08276666666666661	1.3412000000000002	1.0
833.3790514486684	0.09273333333333329	1.3412000000000002	1.0
833.3790514486684	0.09159999999999996	1.4637333333333333	1.0
833.3747909917267	0.0955333333333333	1.4801333333333333	1.0
833.9921476609497	0.10016666666666664	1.3918666666666666	1.0
833.9420875102472	0.10329999999999996	1.283866666666667	1.0
834.2994087987248	0.11086666666666664	1.2242666666666668	1.0
834.3004614595509	0.11333333333333329	1.1082666666666667	1.0
834.3004614595509	0.11263333333333331	1.0061333333333335	1.0
834.7117001795096	0.09006666666666663	0.43320000000000014	1.0
835.2346761571636	0.07753333333333327	0.25213333333333354	1.0
835.2368533404979	0.07753333333333327	0.09626666666666675	1.0
835.2331436192942	0.07079999999999995	0.04853333333333338	1.0
835.2331436192942	0.06249999999999995	0.04853333333333338	1.0
835.2365521315451	0.06163333333333327	0.013066666666666678	1.0
835.6475052339466	0.060199999999999934	-0.017466666666666682	1.0
835.7538163102031	0.05569999999999993	-0.026400000000000024	1.0
835.8557819772382	0.0574666666666666	-0.028933333333333356	1.0
835.8557819772382	0.055366666666666606	-0.028933333333333356	1.0
836.272132008181	0.05653333333333326	-0.02786666666666669	1.0
836.5835995230359	0.0574666666666666	-0.02946666666666669	1.0
836.5822037341707	0.052966666666666606	-0.026400000000000024	1.0
836.7834222141965	0.052966666666666606	-0.02746666666666669	1.0
836.9980993828448	0.054933333333333265	-0.02680000000000002	1.0
836.9980993828448	0.054933333333333265	-0.026400000000000024	1.0
837.1020842044423	0.05833333333333327	-0.026400000000000024	1.0
837.4103454162265	0.055399999999999935	-0.028933333333333356	1.0
837.4105930103865	0.056266666666666604	-0.02626666666666669	1.0
837.9685576276153	0.056233333333333274	-0.02946666666666669	1.0
837.9685576276153	0.055999999999999946	-0.028666666666666694	1.0
837.7240073873852	0.05336666666666661	-0.027200000000000023	1.0
838.1434540752041	0.05516666666666661	-0.02626666666666669	1.0
838.2913601914889	0.055699999999999944	-0.027333333333333355	1.0
838.8746819171199	0.05353333333333327	-0.02680000000000002	1.0
838.8746819171199	0.0527666666666666	-0.026000000000000023	1.0
838.8265311554712	0.0527666666666666	-0.027733333333333356	1.0
838.9789192632512	0.0540666666666666	-0.030000000000000023	1.0
839.3988136042592	0.05603333333333327	-0.030000000000000023	1.0
839.5029575015092	0.0520666666666666	-0.02666666666666669	1.0
839.5029575015092	0.05219999999999994	-0.026133333333333356	1.0
839.5037067240369	0.05476666666666661	-0.026400000000000024	1.0
839.5887215721796	0.05696666666666661	-0.027600000000000027	1.0
839.5887215721796	0.05193333333333327	-0.02666666666666669	1.0
840.6612527586727	0.0580666666666666	-0.028800000000000027	1.0
840.6612527586727	0.05153333333333328	-0.02426666666666669	1.0
840.868127527325	0.05423333333333327	-0.02546666666666669	1.0
840.8673645292665	0.05723333333333327	-0.028266666666666693	1.0
840.9628528876598	0.05723333333333327	-0.028000000000000025	1.0
840.9628528876598	0.055466666666666595	-0.028800000000000027	1.0
840.9628528876598	0.058133333333333266	-0.028800000000000027	1.0
840.9628528876598	0.05463333333333328	-0.028000000000000025	1.0
841.4957398486089	0.0530666666666666	-0.025733333333333355	1.0
841.5996893271756	0.056566666666666605	-0.028000000000000025	1.0
841.6029533183738	0.05609999999999995	-0.028400000000000022	1.0
841.7085463032224	0.05503333333333328	-0.028266666666666693	1.0
841.7085463032224	0.055499999999999945	-0.025600000000000022	1.0
842.2271172004206	0.053599999999999946	-0.028266666666666693	1.0
842.5441676754572	0.05399999999999994	-0.028266666666666693	1.0
842.8709792244124	0.05513333333333327	-0.026533333333333357	1.0
842.8705392582214	0.05513333333333327	-0.02626666666666669	1.0
842.8705392582214	0.05576666666666661	-0.02626666666666669	1.0
843.0770746883705	0.054799999999999946	-0.030000000000000023	1.0
843.2482328087051	0.05463333333333326	-0.02786666666666669	1.0
843.2482328087051	0.0515666666666666	-0.024933333333333356	1.0
844.348114463153	0.05089999999999993	-0.02586666666666669	1.0
844.348114463153	0.048566666666666605	-0.02360000000000002	1.0
844.4492553689444	0.05646666666666661	-0.027600000000000027	1.0
844.5530380207277	0.052999999999999936	-0.026533333333333357	1.0
844.7703854855348	0.050966666666666605	-0.026000000000000023	1.0
844.7704880525331	0.056399999999999936	-0.029066666666666692	1.0
844.7704880525331	0.055099999999999934	-0.027733333333333356	1.0
844.8690723164273	0.055099999999999934	-0.02853333333333336	1.0
842.6539680114389	0.05469999999999994	-0.02853333333333336	1.0
842.6539680114389	0.05669999999999993	-0.02746666666666669	1.0
842.129255783249	0.05576666666666661	-0.02853333333333336	1.0
842.129255783249	0.05689999999999995	-0.02933333333333336	1.0
842.1295347811088	0.05689999999999995	-0.02933333333333336	1.0
841.7025601118237	0.05543333333333327	-0.028933333333333356	1.0
841.7025601118237	0.05903333333333328	-0.028933333333333356	1.0
841.6000190215194	0.059066666666666615	-0.03080000000000003	1.0
841.3898448707738	0.05703333333333328	-0.03093333333333336	1.0
841.3898448707738	0.05483333333333327	-0.02853333333333336	1.0
841.2913326660223	0.05359999999999993	-0.02786666666666669	1.0
841.2913326660223	0.056666666666666594	-0.02973333333333336	1.0
840.8677434226436	0.058933333333333275	-0.029600000000000026	1.0
840.8675734852228	0.05659999999999993	-0.02933333333333336	1.0
840.8631677390988	0.056899999999999944	-0.028933333333333356	1.0
840.6607813195523	0.05543333333333327	-0.029066666666666692	1.0
840.6607813195523	0.05543333333333327	-0.029600000000000026	1.0
840.4443292790495	0.05563333333333328	-0.027200000000000023	1.0
840.4466733582881	0.05399999999999994	-0.027200000000000023	1.0
839.8183740949069	0.058266666666666606	-0.02786666666666669	1.0
839.5052727713808	0.0552666666666666	-0.028400000000000022	1.0
839.4990022034838	0.054733333333333266	-0.025333333333333357	1.0
839.4990022034838	0.05163333333333327	-0.02666666666666669	1.0
839.080055653409	0.05973333333333327	-0.029866666666666694	1.0
838.9829767507655	0.055366666666666606	-0.02853333333333336	1.0
838.5659284267696	0.059466666666666605	-0.02853333333333336	1.0
838.1478916238374	0.05613333333333327	-0.027066666666666694	1.0
838.1478916238374	0.0530666666666666	-0.02746666666666669	1.0
838.1449111172457	0.0530666666666666	-0.027600000000000027	1.0
837.8279419923742	0.05446666666666661	-0.02506666666666669	1.0
837.7283964468388	0.05323333333333327	-0.02506666666666669	1.0
837.5148791182719	0.052866666666666604	-0.028800000000000027	1.0
837.5148791182719	0.05443333333333327	-0.02546666666666669	1.0
837.4105884819171	0.05943333333333327	-0.029600000000000026	1.0
837.1011840928733	0.052966666666666606	-0.026400000000000024	1.0
837.0022189428071	0.05739999999999994	-0.02853333333333336	1.0
836.7884050921847	0.05383333333333328	-0.02933333333333336	1.0
836.7884050921847	0.053966666666666614	-0.02520000000000002	1.0
836.5826795456887	0.053333333333333274	-0.02666666666666669	1.0
836.2758703671387	0.0492666666666666	-0.02426666666666669	1.0
836.0627167231105	0.0492666666666666	-0.02813333333333336	1.0
836.2707673269767	0.055133333333333284	-0.02813333333333336	1.0
835.7494781724819	0.054299999999999925	-0.02813333333333336	1.0
835.7494781724819	0.05643333333333327	-0.029600000000000026	1.0
835.6474763531654	0.05846666666666662	-0.03013333333333336	1.0
835.3400476957779	0.056899999999999944	-0.02666666666666669	1.0
835.338507947356	0.059099999999999944	-0.012933333333333345	1.0
835.0286050068165	0.06369999999999995	0.0074666666666666735	1.0
835.0286050068165	0.06869999999999996	0.09146666666666674	1.0
834.7170134769551	0.07553333333333327	0.22666666666666685	1.0
834.8196688190305	0.08606666666666662	0.3198666666666669	1.0
834.7168612399537	0.09969999999999997	0.7940000000000002	1.0
833.9896944206288	0.09969999999999997	1.0841333333333334	1.0
833.9896944206288	0.11046666666666662	1.2321333333333335	1.0
833.8882451138456	0.10833333333333328	1.2321333333333335	1.0
833.6905536396431	0.1060333333333333	1.2989333333333335	1.0
833.4731298415257	0.10609999999999994	1.3044000000000002	1.0
833.3782490188697	0.09519999999999997	1.4515999999999998	1.0
833.3782490188697	0.09589999999999996	1.48	1.0
833.3782490188697	0.0946333333333333	1.48	1.0
833.3758559279479	0.09539999999999996	1.4841333333333333	1.0
832.9641719707373	0.08776666666666663	1.3966666666666667	1.0
832.9641864528986	0.08859999999999996	1.3845333333333334	1.0
832.9641864528986	0.08916666666666662	1.3928	1.0
832.9641864528986	0.08916666666666662	1.4631999999999998	1.0
832.5507139860732	0.08469999999999996	1.48	1.0
832.1389439752444	0.08779999999999996	1.48	1.0
831.7274233945607	0.08619999999999996	1.4788	1.0
831.7277821836461	0.08106666666666662	1.4271999999999998	1.0
831.7277821836461	0.08316666666666662	1.3260000000000003	1.0
831.7233788545403	0.07906666666666662	1.3793333333333335	1.0
831.1152328996454	0.08409999999999995	1.4882666666666666	1.0
831.1172203773465	0.08239999999999996	1.48	1.0
830.9023331778205	0.08563333333333328	1.4792	1.0
830.9023331778205	0.07709999999999996	1.4045333333333334	1.0
830.3993606415517	0.08056666666666662	1.3745333333333334	1.0
830.3990718367761	0.08476666666666662	1.5493333333333335	1.0
830.0877229620914	0.08476666666666662	1.553466666666667	1.0
829.9851858192192	0.08656666666666661	1.553466666666667	1.0
829.9851858192192	0.07953333333333329	1.4029333333333334	1.0
829.4732175611027	0.08203333333333328	1.3998666666666668	1.0
829.4744632324497	0.08189999999999996	1.3670666666666669	1.0
829.4732472648599	0.08063333333333328	1.4141333333333335	1.0
829.4804974865851	0.08143333333333329	1.4153333333333333	1.0
829.2658723574208	0.0821333333333333	1.4456	1.0
829.2658723574208	0.08679999999999995	1.3962666666666665	1.0
828.8627836614407	0.08423333333333329	1.48	1.0
828.8587334980385	0.08416666666666663	1.4710666666666665	1.0
828.5653665247204	0.0788333333333333	1.3797333333333335	1.0
828.5653665247204	0.0788333333333333	1.4350666666666667	1.0
828.5653665247204	0.08216666666666661	1.4812	1.0
828.0446764089639	0.08329999999999996	1.4812	1.0
827.7431617212134	0.08416666666666663	1.4871999999999999	1.0
827.3358761423729	0.08379999999999996	1.4950666666666668	1.0
827.3359119987776	0.08806666666666663	1.3957333333333335	1.0
827.3359119987776	0.08456666666666662	1.3857333333333335	1.0
827.0304508726515	0.08249999999999995	1.3849333333333333	1.0
827.0284059776815	0.08379999999999996	1.3958666666666666	1.0
826.5251615147085	0.0879333333333333	1.3648000000000002	1.0
826.4278572374461	0.08679999999999996	1.3672000000000002	1.0
826.4278572374461	0.08916666666666662	1.4804	1.0
825.7169607373974	0.08916666666666662	1.4573333333333334	1.0
825.7165516048019	0.07726666666666662	1.3249333333333335	1.0
825.617468073956	0.08519999999999996	1.3249333333333335	1.0
825.6136021879518	0.08056666666666662	1.3753333333333335	1.0
825.6136021879518	0.08719999999999996	1.4372	1.0
825.6136021879518	0.08629999999999996	1.48	1.0
825.3112144329993	0.08606666666666662	1.48	1.0
825.3107261986273	0.08626666666666662	1.4355999999999998	1.0
825.2080454726472	0.08309999999999995	1.3557333333333337	1.0
825.3186086758516	0.08463333333333328	1.3161333333333334	1.0
825.3186086758516	0.08909999999999996	1.4304000000000001	1.0
824.4013253762869	0.08276666666666661	1.2554666666666667	1.0
824.4056542421447	0.08276666666666661	1.3108000000000002	1.0
823.9980197165377	0.08789999999999995	1.376666666666667	1.0
824.0959703718695	0.08513333333333328	1.376666666666667	1.0
824.0959703718695	0.08649999999999995	1.3988	1.0
823.492546361932	0.08733333333333328	1.4385333333333332	1.0
823.495245593771	0.09139999999999994	1.48	1.0
823.4947959542999	0.09206666666666662	1.48	1.0
822.2939441168427	0.08899999999999997	1.4681333333333333	1.0
822.2939441168427	0.09153333333333329	1.3444000000000003	1.0
822.2939441168427	0.09173333333333329	1.3200000000000003	1.0
822.1793769395861	0.09169999999999998	1.3309333333333335	1.0
821.8899132470684	0.09123333333333328	1.3824	1.0
821.891441950154	0.09123333333333328	1.4077333333333335	1.0
821.891441950154	0.08859999999999996	1.4264000000000001	1.0
821.7931344796526	0.08899999999999997	1.4264000000000001	1.0
821.7918211842166	0.08713333333333328	1.4054666666666666	1.0
821.5793598188319	0.08829999999999996	1.4066666666666667	1.0
821.0853928861493	0.08983333333333329	1.4432	1.0
821.085685260816	0.09209999999999996	1.4598666666666669	1.0
821.085685260816	0.09019999999999996	1.4277333333333333	1.0
821.0883354419852	0.0905333333333333	1.4073333333333335	1.0
820.5868766961055	0.09736666666666662	1.3249333333333335	1.0
820.589670716347	0.09349999999999996	1.3397333333333337	1.0
819.7882890543183	0.08956666666666663	1.3773333333333337	1.0
819.7882890543183	0.09269999999999996	1.3761333333333334	1.0
819.7931043869693	0.09269999999999996	1.3961333333333332	1.0
819.7876845571218	0.09286666666666661	1.3685333333333336	1.0
818.6897338970891	0.09213333333333329	1.3685333333333336	1.0
818.5924663943155	0.09119999999999995	1.4024	1.0
818.5924663943155	0.09669999999999995	1.3229333333333337	1.0
818.5903004736876	0.08886666666666662	1.2644000000000002	1.0
818.4998162463777	0.09693333333333327	1.2645333333333335	1.0
818.4998162463777	0.09313333333333328	1.2449333333333337	1.0
818.2920205434289	0.0919333333333333	1.239866666666667	1.0
818.2920205434289	0.08823333333333329	1.2401333333333335	1.0
818.1942789271553	0.09536666666666663	1.3200000000000003	1.0
817.7985123621106	0.09459999999999996	1.315866666666667	1.0
817.4965123858403	0.09459999999999996	1.1758666666666666	1.0
817.4943431233496	0.09589999999999996	1.3013333333333337	1.0
817.4943431233496	0.0926666666666666	1.3013333333333337	1.0
817.3046665381576	0.09813333333333331	1.3200000000000003	1.0
816.9038318919711	0.0912333333333333	1.3485333333333338	1.0
816.8139670726769	0.09726666666666663	1.3212000000000002	1.0
816.2074847341153	0.09449999999999996	1.3244000000000002	1.0
816.2105825703763	0.0957333333333333	1.2496000000000003	1.0
816.2105825703763	0.08676666666666662	1.1601333333333335	1.0
816.2105825703763	0.09523333333333328	1.3718666666666668	1.0
815.1339211475846	0.10299999999999997	1.3676000000000004	1.0
815.1340975889495	0.09166666666666663	1.2276000000000002	1.0
814.7390977836648	0.09166666666666663	1.1601333333333337	1.0
814.7390977836648	0.08876666666666663	1.3197333333333336	1.0
814.7382401335993	0.09579999999999995	1.3197333333333336	1.0
814.7361873821791	0.10173333333333329	1.4366666666666668	1.0
814.7405841891955	0.10186666666666663	1.4654666666666667	1.0
814.5325967871466	0.10459999999999994	1.4086666666666667	1.0
814.5325967871466	0.09776666666666663	1.3942666666666665	1.0
814.0463538624755	0.09699999999999996	1.3602666666666667	1.0
814.0476493805195	0.09826666666666663	1.241466666666667	1.0
814.0483263595621	0.10229999999999997	1.2404000000000002	1.0
813.1601968545802	0.10319999999999997	1.314	1.0
813.1601968545802	0.10419999999999996	1.3866666666666667	1.0
813.1634473867065	0.10296666666666662	1.3794666666666668	1.0
812.8614092607996	0.10296666666666662	1.3652000000000002	1.0
812.6736187997913	0.10069999999999997	1.3990666666666667	1.0
811.7955845904319	0.10273333333333329	1.3990666666666667	1.0
811.7955845904319	0.10049999999999996	1.396	1.0
811.7955845904319	0.10196666666666662	1.3202666666666667	1.0
811.4998946384933	0.09949999999999996	1.2504000000000002	1.0
811.4103246053942	0.09619999999999995	1.1634666666666669	1.0
811.4054490047848	0.09629999999999997	1.2005333333333337	1.0
811.4081337705961	0.09809999999999995	1.2992000000000001	1.0
811.4081337705961	0.1007333333333333	1.3206666666666669	1.0
811.306572191072	0.10239999999999996	1.3489333333333335	1.0
811.0668694495556	0.10236666666666662	1.4292	1.0
811.1100462547888	0.10236666666666662	1.48	1.0
811.1101136388289	0.1055666666666666	1.48	1.0
811.1101136388289	0.10526666666666662	1.48	1.0
810.7238179273384	0.10819999999999998	1.4092	1.0
810.623842912451	0.1012333333333333	1.2894666666666668	1.0
810.2340917080095	0.1030333333333333	1.3525333333333336	1.0
809.8415885128692	0.09903333333333329	1.2310666666666668	1.0
809.8415885128692	0.09616666666666662	1.2397333333333336	1.0
809.8438976505226	0.09776666666666661	1.2970666666666668	1.0
809.8438976505226	0.09903333333333329	1.1976000000000002	1.0
809.4529701402046	0.09326666666666664	1.1642666666666668	1.0
809.3632047145867	0.10086666666666663	1.2029333333333334	1.0
808.2915614261474	0.10133333333333329	1.2521333333333335	1.0
808.2915614261474	0.10133333333333329	1.2988000000000002	1.0
808.1988889946651	0.09843333333333329	1.2988000000000002	1.0
808.1926867242464	0.09586666666666663	1.1808000000000003	1.0
808.0980366834492	0.09543333333333329	1.2313333333333336	1.0
808.0034367411228	0.10259999999999997	1.2765333333333335	1.0
808.0034367411228	0.09883333333333329	1.2966666666666669	1.0
808.0034367411228	0.09853333333333329	1.2517333333333336	1.0
807.8053110858485	0.09433333333333328	1.315866666666667	1.0
807.7163186824617	0.10253333333333331	1.3200000000000003	1.0
807.4228010900796	0.10309999999999996	1.319866666666667	1.0
807.4228010900796	0.0982333333333333	1.1773333333333336	1.0
807.3241989605732	0.09843333333333329	1.1989333333333336	1.0
807.0318735307795	0.09843333333333329	1.3317333333333337	1.0
807.0309121239409	0.09876666666666663	1.3246666666666669	1.0
806.2615750778658	0.1015333333333333	1.3246666666666669	1.0
806.2615750778658	0.10106666666666662	1.2936000000000003	1.0
806.0749819001238	0.09616666666666662	1.2456000000000003	1.0
805.8858566494214	0.09529999999999995	1.2186666666666668	1.0
805.7809474224952	0.09616666666666662	1.1657333333333335	1.0
804.8251670579685	0.09999999999999996	1.2261333333333335	1.0
804.8251670579685	0.09809999999999995	1.2024000000000001	1.0
804.7198819459792	0.09843333333333329	1.2189333333333336	1.0
804.7341188961489	0.09829999999999996	1.225466666666667	1.0
804.7341188961489	0.09449999999999996	1.1752000000000002	1.0
804.7341188961489	0.09449999999999996	1.1637333333333335	1.0
804.7341188961489	0.09336666666666663	1.1705333333333334	1.0
804.7341188961489	0.09376666666666662	1.1705333333333334	1.0
804.2478786581992	0.09636666666666661	1.1600000000000001	1.0
804.3428039253072	0.0901333333333333	1.1613333333333336	1.0
803.9646238228876	0.10116666666666663	1.1617333333333335	1.0
803.6698303170683	0.10086666666666662	1.1721333333333337	1.0
803.6698303170683	0.1001333333333333	1.2277333333333336	1.0
803.4830719663494	0.09869999999999995	1.2394666666666667	1.0
802.7233684074371	0.1029333333333333	1.2806666666666668	1.0
802.7157993236845	0.10446666666666662	1.317466666666667	1.0
802.7199673410369	0.09976666666666661	1.3200000000000003	1.0
802.7199673410369	0.09976666666666661	1.296266666666667	1.0
802.3394998231583	0.09596666666666663	1.1597333333333333	1.0
801.3882083847877	0.10106666666666664	1.1597333333333333	1.0
801.3853989063134	0.09363333333333329	1.16	1.0
801.1474747034234	0.09393333333333329	1.1612	1.0
801.1474747034234	0.09603333333333329	1.1852000000000003	1.0
801.1890355637979	0.09629999999999996	1.243466666666667	1.0
801.1926175849786	0.10083333333333329	1.3152000000000001	1.0
801.189581267076	0.10096666666666662	1.3016000000000003	1.0
801.0996185726588	0.09793333333333329	1.1872000000000003	1.0
801.0996185726588	0.09106666666666662	1.0856000000000001	1.0
801.0959805824501	0.09213333333333329	1.08	1.0
801.1392730965136	0.09213333333333329	1.0800000000000003	1.0
801.1392730965136	0.09019999999999996	1.1380000000000001	1.0
800.430469822393	0.09333333333333328	1.1380000000000001	1.0
800.430469822393	0.09669999999999997	1.1390666666666667	1.0
800.4291888548174	0.09146666666666663	1.1589333333333336	1.0
800.1552881222758	0.09926666666666663	1.1257333333333335	1.0
