wavelength(nm)	flourescence PMT(V)	ti_saph Power (V)	Gain (V)
800.9067221708804	0.17783333333333326	1.0973333333333333	1.1
800.9067221708804	0.18409999999999993	1.1156000000000001	1.1
801.0988905986482	0.18139999999999995	1.0800000000000003	1.1
801.1888481037929	0.18149999999999994	1.0798666666666668	1.1
801.1909807641774	0.17353333333333326	1.0800000000000003	1.1
801.1909807641774	0.17199999999999993	1.0801333333333334	1.1
801.1914111604025	0.20309999999999992	1.1776000000000002	1.1
801.2825841732846	0.20309999999999992	1.2365333333333335	1.1
801.283918051201	0.19559999999999994	1.1998666666666669	1.1
801.283918051201	0.1898999999999999	1.1998666666666669	1.1
802.3394278145213	0.18189999999999992	1.1329333333333336	1.1
802.7202272619153	0.18259999999999993	1.1301333333333334	1.1
802.7162863411273	0.1881333333333333	1.1446666666666667	1.1
802.7162863411273	0.18829999999999994	1.1624	1.1
802.8149076540689	0.1869666666666666	1.16	1.1
802.8116017002378	0.1784666666666666	1.1604	1.1
803.4867335140833	0.1913666666666666	1.16	1.1
803.4867335140833	0.19069999999999993	1.1693333333333336	1.1
803.482498624929	0.1885666666666666	1.2430666666666668	1.1
803.9641027248226	0.1885666666666666	1.1970666666666667	1.1
804.145443271924	0.18309999999999993	1.1468000000000003	1.1
804.3457417658152	0.1831666666666666	1.1468000000000003	1.1
804.3457417658152	0.1814999999999999	1.1606666666666667	1.1
804.3457680699347	0.18859999999999993	1.1578666666666668	1.1
804.4390851241516	0.1847666666666666	1.1525333333333334	1.1
804.6752065400213	0.17709999999999992	1.0813333333333333	1.1
804.6752065400213	0.1747666666666666	1.0796	1.1
804.6301412829501	0.18099999999999994	1.1520000000000001	1.1
804.7339085637958	0.18839999999999993	1.1516	1.1
804.7203281658205	0.19009999999999994	1.1629333333333336	1.1
804.7203281658205	0.1973666666666666	1.2177333333333336	1.1
804.8255242712183	0.1973666666666666	1.1917333333333338	1.1
804.8255242712183	0.18543333333333328	1.1724	1.1
805.983454067506	0.19113333333333327	1.1724	1.1
805.983454067506	0.19149999999999992	1.1873333333333336	1.1
806.3512153621667	0.1804666666666666	1.2473333333333334	1.1
806.2625913348343	0.18349999999999994	1.2264000000000002	1.1
807.028264250226	0.19949999999999993	1.2244000000000002	1.1
807.0350511153185	0.19069999999999993	1.16	1.1
807.0350511153185	0.17993333333333328	1.2345333333333335	1.1
807.3256457178052	0.18703333333333327	1.1629333333333336	1.1
807.5792598092243	0.18453333333333327	1.16	1.1
807.8058778079726	0.19469999999999993	1.1593333333333335	1.1
807.8058778079726	0.19469999999999993	1.16	1.1
807.8099821914192	0.18569999999999992	1.2568000000000004	1.1
807.9011670185103	0.19053333333333328	1.2568000000000004	1.1
807.9013181975107	0.19623333333333326	1.2810666666666668	1.1
807.9013181975107	0.19153333333333328	1.2409333333333337	1.1
808.1800104162005	0.20363333333333325	1.2165333333333335	1.1
808.2799275643275	0.19273333333333326	1.233066666666667	1.1
808.1993973099027	0.18629999999999997	1.1870666666666667	1.1
808.1993973099027	0.19063333333333327	1.1601333333333337	1.1
808.1931589192977	0.1838666666666666	1.16	1.1
808.1932059935418	0.1877999999999999	1.1562666666666666	1.1
809.172991668582	0.18956666666666658	1.1802666666666668	1.1
809.172991668582	0.18956666666666658	1.277066666666667	1.1
809.172991668582	0.19483333333333325	1.2561333333333335	1.1
809.4568190800418	0.1981666666666666	1.2561333333333335	1.1
809.4587408945016	0.1920999999999999	1.233866666666667	1.1
810.2342598547555	0.1863999999999999	1.193466666666667	1.1
810.2342598547555	0.19449999999999992	1.1654666666666669	1.1
810.2343236891022	0.18963333333333324	1.1601333333333337	1.1
810.232187344289	0.18249999999999994	1.1606666666666667	1.1
810.5882962532659	0.19349999999999995	1.277466666666667	1.1
810.5882962532659	0.1944333333333333	1.3020000000000005	1.1
810.7232251618519	0.1951666666666666	1.305866666666667	1.1
811.1098797387116	0.20059999999999992	1.3125333333333338	1.1
811.1135454249919	0.20059999999999992	1.3236	1.1
811.1135454249919	0.20963333333333325	1.2930666666666668	1.1
811.4043416702607	0.19363333333333324	1.2930666666666668	1.1
811.404316186315	0.19753333333333326	1.3788000000000002	1.1
811.4095841732703	0.20886666666666662	1.372266666666667	1.1
811.4095841732703	0.2020666666666666	1.2992000000000004	1.1
811.5029379303412	0.17789999999999995	1.1718666666666666	1.1
811.4994795152928	0.18129999999999993	1.1600000000000001	1.1
811.4983086017002	0.18763333333333326	1.16	1.1
811.4983086017002	0.17539999999999992	1.1581333333333335	1.1
812.6761528769368	0.18459999999999993	1.1776000000000002	1.1
812.6761303527616	0.18769999999999995	1.3916000000000002	1.1
813.1616397198437	0.18769999999999995	1.3556000000000004	1.1
813.1616397198437	0.19039999999999993	1.3180000000000003	1.1
813.1606245163247	0.19636666666666658	1.3180000000000003	1.1
813.160582690474	0.1944666666666666	1.3202666666666667	1.1
813.160582690474	0.1863999999999999	1.3621333333333336	1.1
813.160582690474	0.19279999999999992	1.346266666666667	1.1
813.160582690474	0.18449999999999994	1.2422666666666669	1.1
814.0449354072732	0.1831333333333333	1.2416000000000003	1.1
814.7395116152727	0.18303333333333327	1.3689333333333338	1.1
814.7391537432527	0.1934666666666666	1.3932	1.1
814.7391537432527	0.20543333333333325	1.4002666666666665	1.1
814.7406023868879	0.19589999999999994	1.4	1.1
814.7373736023869	0.19589999999999994	1.4	1.1
815.1333562957618	0.2012666666666666	1.3838666666666666	1.1
815.1333562957618	0.1873666666666666	1.3838666666666666	1.1
815.3227423494149	0.1924666666666666	1.1616	1.1
815.3227423494149	0.17783333333333326	1.1761333333333335	1.1
815.3240274995458	0.19199999999999992	1.314266666666667	1.1
815.3240274995458	0.1974999999999999	1.3070666666666668	1.1
816.2078597974194	0.18426666666666663	1.16	1.1
816.2079067145089	0.17156666666666662	1.16	1.1
816.9064424363168	0.18039999999999995	1.2733333333333337	1.1
816.9064424363168	0.18776666666666658	1.2914666666666668	1.1
817.3036531514347	0.19179999999999992	1.2394666666666667	1.1
817.4017109719097	0.19179999999999992	1.2109333333333336	1.1
817.6318927032861	0.1753666666666666	1.2109333333333336	1.1
817.7950460997957	0.1745333333333333	1.1662666666666666	1.1
817.7950460997957	0.17779999999999993	1.1624	1.1
818.1954300720992	0.1876666666666666	1.297466666666667	1.1
818.1954300720992	0.1911666666666666	1.3205333333333336	1.1
818.1954300720992	0.1785666666666666	1.2429333333333337	1.1
818.1954300720992	0.17823333333333327	1.2149333333333336	1.1
818.5907929539982	0.18753333333333325	1.225466666666667	1.1
818.5904505766076	0.1697333333333333	1.233066666666667	1.1
818.5902120076837	0.17159999999999995	1.1609333333333334	1.1
818.5902120076837	0.17159999999999995	1.16	1.1
818.5908076207012	0.17699999999999994	1.16	1.1
818.5951043407736	0.18019999999999992	1.16	1.1
819.7920443736087	0.16839999999999994	1.1620000000000001	1.1
819.7920443736087	0.17093333333333327	1.2304000000000002	1.1
819.7885684874967	0.18319999999999992	1.3473333333333335	1.1
819.7884694032178	0.17709999999999992	1.3157333333333334	1.1
820.5858384580926	0.17473333333333324	1.2397333333333336	1.1
820.5858384580926	0.19073333333333328	1.3528000000000002	1.1
820.5393272155411	0.18873333333333325	1.3450666666666669	1.1
820.6841432175521	0.17339999999999994	1.3213333333333337	1.1
821.0880773151381	0.17419999999999994	1.3329333333333337	1.1
821.0880773151381	0.17419999999999994	1.3988	1.1
821.0880040952944	0.19099999999999995	1.3918666666666666	1.1
821.0880040952944	0.1759666666666666	1.3918666666666666	1.1
821.7907823839531	0.17536666666666662	1.3912	1.1
821.7907823839531	0.17369999999999994	1.4020000000000001	1.1
821.7907823839531	0.17579999999999993	1.4006666666666667	1.1
821.7906722468431	0.1713666666666666	1.3998666666666668	1.1
821.8920281130678	0.18346666666666658	1.398	1.1
822.19707173381	0.16269999999999996	1.392266666666667	1.1
822.19707173381	0.17253333333333326	1.3277333333333334	1.1
822.1845866774269	0.16973333333333326	1.3000000000000003	1.1
822.2925164398525	0.17739999999999995	1.2492000000000003	1.1
823.497788367452	0.17739999999999995	1.2550666666666668	1.1
823.497788367452	0.16776666666666662	1.4424	1.1
823.4985618439088	0.17449999999999993	1.4424	1.1
823.4943871592192	0.18033333333333326	1.4739999999999998	1.1
823.4943871592192	0.16609999999999994	1.4498666666666666	1.1
823.4943871592192	0.17196666666666657	1.4642666666666666	1.1
824.0946449725304	0.16226666666666661	1.4017333333333333	1.1
824.0957808491335	0.17299999999999993	1.3786666666666667	1.1
824.3087391401976	0.16043333333333326	1.3137333333333336	1.1
824.7091523685353	0.1648333333333333	1.2502666666666669	1.1
824.7091523685353	0.16159999999999994	1.2540000000000002	1.1
824.8043359119487	0.1668666666666666	1.4106666666666667	1.1
825.2132012577372	0.1697333333333333	1.2586666666666668	1.1
825.213240221081	0.1697333333333333	1.2260000000000002	1.1
825.213240221081	0.15843333333333326	1.2260000000000002	1.1
825.2133637535229	0.16076666666666664	1.2197333333333336	1.1
825.306524606419	0.16176666666666661	1.305066666666667	1.1
825.6088741962419	0.16793333333333327	1.4188	1.1
825.6088741962419	0.16379999999999995	1.3964	1.1
825.617610001168	0.1706666666666666	1.3962666666666668	1.1
825.6652898408513	0.1628666666666666	1.3656000000000001	1.1
825.6652898408513	0.15939999999999996	1.3296000000000001	1.1
825.6652898408513	0.16703333333333328	1.4444	1.1
826.4254943968775	0.16769999999999993	1.4801333333333333	1.1
826.4254943968775	0.16769999999999993	1.4401333333333333	1.1
826.9295255433431	0.16376666666666662	1.3940000000000001	1.1
826.9295255433431	0.1631666666666666	1.3940000000000001	1.1
827.3396285095329	0.16289999999999993	1.3781333333333334	1.1
827.3372724377624	0.15596666666666664	1.3173333333333335	1.1
827.743430562403	0.15896666666666662	1.3176000000000003	1.1
827.743430562403	0.15859999999999994	1.3414666666666668	1.1
827.743430562403	0.1693666666666666	1.4796	1.1
828.3493036364551	0.1757666666666666	1.4813333333333332	1.1
828.6598653169524	0.16809999999999992	1.4818666666666664	1.1
828.5602079586082	0.16906666666666662	1.4089333333333334	1.1
828.5602079586082	0.16143333333333326	1.3512000000000004	1.1
828.8559563226369	0.16143333333333326	1.3994666666666669	1.1
828.8569988254493	0.15863333333333327	1.4061333333333335	1.1
829.4767110795168	0.15359999999999996	1.4061333333333335	1.1
829.4767110795168	0.16203333333333328	1.3570666666666669	1.1
829.3774196881354	0.1710666666666666	1.3297333333333337	1.1
829.4785004119088	0.1698666666666666	1.3770666666666669	1.1
829.5757136462157	0.1548666666666666	1.3232000000000002	1.1
829.5757136462157	0.16073333333333328	1.3152000000000001	1.1
830.0849777583677	0.15339999999999995	1.4455999999999998	1.1
829.9897149617558	0.16229999999999994	1.3996	1.1
830.3975903813484	0.16193333333333326	1.3933333333333335	1.1
830.3975903813484	0.17479999999999996	1.4102666666666666	1.1
831.1171018026266	0.17479999999999996	1.3433333333333335	1.1
831.1189105701129	0.16419999999999993	1.3201333333333336	1.1
831.2165455062981	0.15683333333333327	1.3201333333333336	1.1
831.7276921236348	0.15666666666666662	1.3849333333333333	1.1
831.7276921236348	0.1595666666666666	1.4212	1.1
831.7285035700465	0.16226666666666661	1.3204000000000005	1.1
831.7266022029987	0.1583333333333333	1.2521333333333338	1.1
832.1382096878648	0.16076666666666659	1.307066666666667	1.1
832.1382096878648	0.17103333333333326	1.4638666666666666	1.1
832.1382096878648	0.17549999999999993	1.3200000000000003	1.1
832.6493804060948	0.17073333333333326	1.3940000000000001	1.1
832.9590345361889	0.1766666666666666	1.4330666666666667	1.1
832.9590345361889	0.1766666666666666	1.4012	1.1
832.9639358108922	0.17406666666666662	1.3986666666666667	1.1
833.3717126083463	0.17489999999999994	1.3986666666666667	1.1
833.3750403010592	0.18483333333333327	1.3226666666666669	1.1
833.3750403010592	0.17869999999999991	1.3200000000000003	1.1
833.470366207566	0.18293333333333328	1.3214666666666668	1.1
833.895283338243	0.19983333333333325	1.1917333333333335	1.1
833.9871611027626	0.19529999999999992	1.0916000000000001	1.1
833.9880553510644	0.2030333333333333	1.1221333333333334	1.1
833.9880553510644	0.22053333333333328	1.1356	1.1
834.302981183135	0.24079999999999993	1.0836000000000001	1.1
834.3025544763024	0.23466666666666658	1.0416	1.1
834.8185866235275	0.23466666666666658	0.2789333333333335	1.1
834.8185866235275	0.17033333333333325	0.1510666666666668	1.1
835.031992152086	0.15339999999999995	0.1510666666666668	1.1
835.2346252931183	0.13509999999999997	0.0781333333333334	1.1
835.344321048975	0.12289999999999997	0.01040000000000001	1.1
835.344321048975	0.12076666666666663	0.0040000000000000036	1.1
835.7402439746787	0.11016666666666663	-0.02586666666666669	1.1
835.8560407329988	0.10246666666666662	-0.03240000000000003	1.1
836.3784205667994	0.10266666666666663	-0.03280000000000003	1.1
836.3784205667994	0.10486666666666662	-0.033066666666666696	1.1
836.5824818444964	0.10413333333333329	-0.03360000000000003	1.1
836.5836170794614	0.10859999999999995	-0.03266666666666669	1.1
836.7894900614743	0.10859999999999995	-0.030666666666666693	1.1
836.7982531437525	0.10766666666666663	-0.03293333333333336	1.1
836.7982531437525	0.11093333333333329	-0.03293333333333336	1.1
837.1055932654378	0.11189999999999996	-0.0346666666666667	1.1
837.1013786358953	0.11096666666666664	-0.03333333333333336	1.1
837.4138431515978	0.10086666666666662	-0.032266666666666693	1.1
837.4138431515978	0.10823333333333328	-0.03266666666666669	1.1
837.413849490837	0.10726666666666662	-0.03400000000000003	1.1
837.8348731583144	0.10783333333333327	-0.030666666666666693	1.1
838.1498158216233	0.10566666666666663	-0.03280000000000003	1.1
838.1498158216233	0.10459999999999994	-0.03333333333333336	1.1
838.1498158216233	0.10963333333333329	-0.033066666666666696	1.1
838.5646873468369	0.10963333333333329	-0.03573333333333337	1.1
839.0851571076905	0.1103333333333333	-0.03573333333333337	1.1
839.0851571076905	0.10199999999999995	-0.03213333333333336	1.1
839.0851272377464	0.1093333333333333	-0.03240000000000003	1.1
839.1843787375759	0.11929999999999998	-0.034933333333333365	1.1
839.5034149002073	0.11513333333333328	-0.03373333333333336	1.1
839.5034149002073	0.10986666666666663	-0.034800000000000025	1.1
839.5049750788484	0.10033333333333329	-0.03213333333333336	1.1
840.4470555029895	0.10456666666666664	-0.031600000000000024	1.1
840.6599681101052	0.10636666666666662	-0.03360000000000003	1.1
840.6610377547815	0.10939999999999998	-0.03280000000000003	1.1
840.6610377547815	0.10749999999999996	-0.03266666666666669	1.1
840.6609818012236	0.10749999999999996	-0.030266666666666695	1.1
840.867604318124	0.1015333333333333	-0.030266666666666695	1.1
841.2890275364055	0.10546666666666663	-0.032533333333333365	1.1
841.2890275364055	0.10693333333333331	-0.030400000000000028	1.1
841.2872183610855	0.10799999999999997	-0.03240000000000003	1.1
841.2873114575667	0.11266666666666661	-0.0338666666666667	1.1
841.3918782719204	0.10896666666666661	-0.031200000000000026	1.1
841.3918782719204	0.11029999999999997	-0.03240000000000003	1.1
841.6064777729946	0.1035333333333333	-0.032266666666666693	1.1
841.8021586344983	0.11336666666666662	-0.03333333333333336	1.1
842.0249714857679	0.10433333333333329	-0.03240000000000003	1.1
842.0249714857679	0.10433333333333329	-0.031600000000000024	1.1
842.5486808492718	0.09889999999999996	-0.03360000000000003	1.1
843.0726361047098	0.10616666666666662	-0.03360000000000003	1.1
842.9754127516416	0.1043333333333333	-0.03293333333333336	1.1
842.9754127516416	0.10479999999999996	-0.03173333333333336	1.1
843.3976352885218	0.10693333333333328	-0.03093333333333336	1.1
843.3929629943294	0.11169999999999997	-0.031866666666666696	1.1
843.3929629943294	0.11039999999999997	-0.03453333333333337	1.1
844.4458020791208	0.11093333333333329	-0.03360000000000003	1.1
844.4458020791208	0.10606666666666661	-0.03413333333333336	1.1
844.4462502643546	0.10566666666666663	-0.03413333333333336	1.1
844.5568302691066	0.11293333333333327	-0.03320000000000003	1.1
844.5529148041551	0.11293333333333327	-0.03413333333333336	1.1
844.5529148041551	0.1037333333333333	-0.03373333333333336	1.1
844.9838635367663	0.1100666666666666	-0.03373333333333336	1.1
844.9858269592609	0.10539999999999997	-0.03360000000000003	1.1
844.9839108270208	0.10009999999999995	-0.03240000000000003	1.1
844.9839108270208	0.10476666666666662	-0.031866666666666696	1.1
843.0743001770411	0.10603333333333329	-0.031866666666666696	1.1
843.0743001770411	0.09969999999999996	-0.03320000000000003	1.1
842.8759583956311	0.10753333333333327	-0.033066666666666696	1.1
842.6541128176094	0.10749999999999996	-0.03266666666666669	1.1
842.5487320127072	0.11176666666666663	-0.032266666666666693	1.1
842.5487320127072	0.10273333333333329	-0.03360000000000003	1.1
842.3374431561937	0.1015333333333333	-0.03333333333333336	1.1
842.0239249678568	0.11286666666666662	-0.03266666666666669	1.1
841.6036656201298	0.11229999999999994	-0.03320000000000003	1.1
841.2888089534953	0.10869999999999995	-0.03293333333333336	1.1
841.2888089534953	0.10869999999999995	-0.034933333333333365	1.1
841.2847454674389	0.11239999999999997	-0.033066666666666696	1.1
841.2847454674389	0.11276666666666661	-0.033066666666666696	1.1
841.2830535373876	0.10626666666666663	-0.032266666666666693	1.1
841.2830535373876	0.1063333333333333	-0.03280000000000003	1.1
840.8681146069337	0.1076666666666666	-0.03200000000000003	1.1
840.8680673241657	0.11099999999999995	-0.0338666666666667	1.1
840.5573858860546	0.11086666666666664	-0.0334666666666667	1.1
840.5573858860546	0.10903333333333329	-0.03293333333333336	1.1
840.5434532181613	0.1104333333333333	-0.032533333333333365	1.1
840.3506592463873	0.11249999999999995	-0.033066666666666696	1.1
839.8244696096067	0.10196666666666664	-0.03200000000000003	1.1
839.8244696096067	0.10196666666666664	-0.03333333333333336	1.1
839.5514978635712	0.10246666666666662	-0.03200000000000003	1.1
839.5087405144168	0.10406666666666661	-0.03200000000000003	1.1
839.2896206541826	0.10786666666666661	-0.03320000000000003	1.1
838.9790614164779	0.1080333333333333	-0.03333333333333336	1.1
838.9790614164779	0.1025333333333333	-0.03200000000000003	1.1
838.8764309889833	0.10233333333333329	-0.03333333333333336	1.1
838.4588649638135	0.10899999999999996	-0.03373333333333336	1.1
838.1489943402287	0.11176666666666663	-0.033066666666666696	1.1
838.1489943402287	0.10693333333333328	-0.03333333333333336	1.1
837.7324321612953	0.10346666666666661	-0.03173333333333336	1.1
837.5260247690967	0.11073333333333331	-0.03400000000000003	1.1
837.7291844504498	0.10833333333333328	-0.03333333333333336	1.1
837.7291844504498	0.10833333333333328	-0.030266666666666695	1.1
837.4128168521682	0.10333333333333329	-0.030266666666666695	1.1
837.0935663709843	0.11083333333333328	-0.03200000000000003	1.1
836.799394379081	0.11413333333333327	-0.033066666666666696	1.1
836.799394379081	0.10483333333333329	-0.03200000000000003	1.1
836.7900359891512	0.10853333333333329	-0.031866666666666696	1.1
836.7937981670373	0.10586666666666661	-0.033066666666666696	1.1
836.2767199963471	0.10913333333333329	-0.03400000000000003	1.1
836.2767199963471	0.11316666666666662	-0.03453333333333337	1.1
836.3781313653624	0.10716666666666662	-0.033066666666666696	1.1
836.062268041711	0.11269999999999997	-0.034266666666666695	1.1
835.6422323642929	0.11269999999999997	-0.03320000000000003	1.1
835.7391994203518	0.11146666666666662	-0.03360000000000003	1.1
835.7391994203518	0.1065333333333333	-0.03360000000000003	1.1
835.2423675516696	0.11479999999999997	-0.028266666666666693	1.1
835.4433704985141	0.1212333333333333	-0.005066666666666672	1.1
834.9181660902345	0.12816666666666662	0.010266666666666676	1.1
834.9181660902345	0.15009999999999996	0.11746666666666677	1.1
834.7175668451248	0.1757666666666666	0.2772000000000001	1.1
834.7184625202717	0.20343333333333327	0.6530666666666666	1.1
833.9879159609462	0.22689999999999988	0.8890666666666666	1.1
833.9879159609462	0.22806666666666658	1.1593333333333333	1.1
833.9879159609462	0.22806666666666658	1.1720000000000002	1.1
833.8919195391893	0.2074999999999999	1.1598666666666668	1.1
833.3736222761969	0.20623333333333324	1.1598666666666668	1.1
833.3736222761969	0.18896666666666662	1.2390666666666668	1.1
833.4744219984489	0.18859999999999993	1.4225333333333332	1.1
833.2725745486641	0.18533333333333327	1.4287999999999998	1.1
832.9643772518855	0.17989999999999995	1.4050666666666667	1.1
832.9643772518855	0.1762666666666666	1.4	1.1
832.9644026744235	0.17479999999999993	1.4001333333333335	1.1
832.9644026744235	0.17716666666666658	1.3828	1.1
832.6541856111154	0.17263333333333325	1.4509333333333332	1.1
832.5521042509057	0.16929999999999992	1.4689333333333334	1.1
832.5521042509057	0.16929999999999992	1.4204	1.1
832.2427300019925	0.16179999999999994	1.3290666666666668	1.1
831.7264997271166	0.16663333333333327	1.3290666666666668	1.1
831.7264997271166	0.15826666666666658	1.3392000000000004	1.1
831.7264997271166	0.1522333333333333	1.2401333333333335	1.1
831.7284917065446	0.15813333333333326	1.2401333333333335	1.1
831.2173994563492	0.16336666666666658	1.3393333333333335	1.1
831.1185748414111	0.16336666666666658	1.4313333333333333	1.1
831.1185748414111	0.15916666666666662	1.3862666666666668	1.1
830.4971233614242	0.16053333333333328	1.335066666666667	1.1
830.4990128468307	0.16049999999999995	1.3984	1.1
830.39696872343	0.16289999999999993	1.3944	1.1
830.39696872343	0.16289999999999993	1.3938666666666668	1.1
829.891242818291	0.16296666666666662	1.3998666666666668	1.1
829.4770955485585	0.16003333333333325	1.3998666666666668	1.1
829.4812449845714	0.16196666666666662	1.3954666666666666	1.1
829.4812449845714	0.1575666666666666	1.3310666666666668	1.1
829.4775769756379	0.15519999999999995	1.3301333333333336	1.1
829.3779563587385	0.1626666666666666	1.4968	1.1
829.2656767824311	0.15929999999999991	1.3329333333333337	1.1
828.8660959318709	0.1599333333333333	1.2978666666666667	1.1
828.8660959318709	0.16403333333333325	1.48	1.1
828.6583816016683	0.1615666666666666	1.4286666666666668	1.1
828.6595781731174	0.1663666666666666	1.3990666666666667	1.1
828.2493657696369	0.1663666666666666	1.4724	1.1
828.2493657696369	0.16549999999999992	1.4724	1.1
827.3736144256409	0.16329999999999995	1.4777333333333331	1.1
827.3736144256409	0.17163333333333328	1.4806666666666666	1.1
827.3362778297235	0.1649666666666666	1.3934666666666669	1.1
827.3362778297235	0.16483333333333328	1.3490666666666669	1.1
827.336235560425	0.16633333333333325	1.4067999999999998	1.1
826.8350921564609	0.16763333333333327	1.4646666666666666	1.1
826.8257356835966	0.1694666666666666	1.3358666666666668	1.1
826.8257356835966	0.15773333333333325	1.3289333333333335	1.1
826.1221520048713	0.16906666666666662	1.4604	1.1
825.710683684779	0.17826666666666657	1.4137333333333333	1.1
825.7124056922491	0.17826666666666657	1.347466666666667	1.1
825.7124056922491	0.16526666666666662	1.347466666666667	1.1
825.7148088610322	0.1770333333333333	1.3973333333333333	1.1
825.6188720170528	0.16749999999999993	1.4293333333333331	1.1
825.617418976524	0.1688666666666666	1.4718666666666664	1.1
825.215399758979	0.1720333333333333	1.4785333333333333	1.1
825.215399758979	0.1720666666666666	1.4037333333333333	1.1
825.2143591512207	0.16309999999999994	1.285466666666667	1.1
824.805957080444	0.16023333333333326	1.2712000000000003	1.1
824.8000452510366	0.17673333333333327	1.4793333333333332	1.1
824.8000452510366	0.16929999999999992	1.458	1.1
824.3042105627271	0.1732666666666666	1.3369333333333335	1.1
824.3042105627271	0.1732666666666666	1.3696000000000002	1.1
824.00204084245	0.1644333333333333	1.3696000000000002	1.1
824.00204084245	0.1681666666666666	1.3888	1.1
823.8038667783883	0.16923333333333326	1.3290666666666668	1.1
823.4929133436829	0.1757666666666666	1.3628	1.1
823.4929133436829	0.18629999999999994	1.4745333333333333	1.1
823.4929133436829	0.16889999999999997	1.48	1.1
822.6951929046375	0.17349999999999993	1.4044	1.1
822.6951929046375	0.16376666666666662	1.2381333333333335	1.1
822.1907798109556	0.16333333333333327	1.3033333333333337	1.1
822.1881103453751	0.16659999999999994	1.3217333333333334	1.1
822.1881103453751	0.17533333333333326	1.3828	1.1
821.8902191781099	0.17533333333333326	1.3944	1.1
821.890256994754	0.1700333333333333	1.4342666666666666	1.1
821.791770252935	0.18643333333333326	1.4342666666666666	1.1
821.791770252935	0.18053333333333327	1.3833333333333333	1.1
821.5827220607938	0.18083333333333326	1.3224	1.1
821.5827220607938	0.18196666666666658	1.3205333333333336	1.1
821.0815575854673	0.17559999999999992	1.3737333333333335	1.1
821.0815575854673	0.17209999999999995	1.3388000000000002	1.1
820.5480397819634	0.17629999999999993	1.3204000000000002	1.1
820.5896724688547	0.1759666666666666	1.3210666666666668	1.1
820.493469582375	0.1793666666666666	1.3318666666666668	1.1
820.493469582375	0.17543333333333327	1.3321333333333336	1.1
819.7889831980066	0.17543333333333327	1.3641333333333336	1.1
819.7901440806284	0.18353333333333327	1.3860000000000001	1.1
819.7901440806284	0.17809999999999995	1.3860000000000001	1.1
818.5958822186819	0.17513333333333325	1.265066666666667	1.1
818.5958822186819	0.17943333333333328	1.1881333333333335	1.1
818.5917938260745	0.17689999999999992	1.16	1.1
818.5938065467294	0.1875666666666666	1.16	1.1
818.2868536046116	0.17069999999999994	1.1634666666666669	1.1
818.2868536046116	0.18266666666666662	1.241866666666667	1.1
818.2914529898623	0.17879999999999993	1.2410666666666668	1.1
818.1902755142212	0.18639999999999993	1.3192000000000004	1.1
817.7962272202147	0.17879999999999993	1.3221333333333336	1.1
817.7962272202147	0.17879999999999993	1.165866666666667	1.1
817.5013158376879	0.18086666666666662	1.2204000000000002	1.1
817.4913615398693	0.1782666666666666	1.2204000000000002	1.1
817.3038639496715	0.17783333333333326	1.2400000000000002	1.1
817.3038639496715	0.1880666666666666	1.2361333333333335	1.1
817.0410217385177	0.19159999999999994	1.3165333333333336	1.1
816.8550743386373	0.19503333333333325	1.3201333333333336	1.1
816.2089042992518	0.17483333333333329	1.2281333333333335	1.1
816.2089042992518	0.18329999999999994	1.16	1.1
816.209802597707	0.17643333333333325	1.1601333333333335	1.1
816.209802597707	0.19309999999999994	1.3396000000000003	1.1
815.3248023652814	0.18919999999999992	1.352266666666667	1.1
815.1310838982187	0.18919999999999992	1.1868000000000003	1.1
815.1310838982187	0.18033333333333326	1.16	1.1
814.7410389787622	0.17566666666666658	1.16	1.1
814.7408999056984	0.19713333333333324	1.3321333333333336	1.1
814.740739352807	0.19193333333333326	1.4006666666666667	1.1
814.740739352807	0.19429999999999992	1.4010666666666667	1.1
814.7441959485101	0.19709999999999991	1.4005333333333332	1.1
814.501530286823	0.20103333333333326	1.4017333333333333	1.1
814.501530286823	0.18953333333333328	1.3245333333333336	1.1
814.501530286823	0.18699999999999994	1.2369333333333334	1.1
814.0481538790008	0.18849999999999992	1.2408000000000001	1.1
813.1658217548596	0.1972333333333333	1.3237333333333337	1.1
813.1649893216394	0.1972333333333333	1.3689333333333336	1.1
813.1649893216394	0.19199999999999992	1.322266666666667	1.1
813.1649893216394	0.1955666666666666	1.322266666666667	1.1
812.6749846508216	0.18426666666666658	1.3116000000000003	1.1
811.8903126688306	0.19959999999999992	1.3849333333333333	1.1
811.8903126688306	0.2052666666666666	1.356266666666667	1.1
811.7959282373864	0.19289999999999993	1.1653333333333333	1.1
811.5014249039859	0.18533333333333327	1.16	1.1
811.501175526849	0.18823333333333325	1.1561333333333335	1.1
811.4042577752242	0.18003333333333327	1.178266666666667	1.1
811.4042577752242	0.20199999999999993	1.289466666666667	1.1
811.4041275805745	0.2072666666666666	1.3252000000000002	1.1
811.202970990265	0.2072666666666666	1.3345333333333336	1.1
811.1083120648291	0.20786666666666662	1.3201333333333336	1.1
811.1083120648291	0.19223333333333326	1.3201333333333336	1.1
811.1082897523104	0.19973333333333324	1.3914666666666666	1.1
810.6272231562501	0.21373333333333325	1.4017333333333335	1.1
810.6282560762237	0.19336666666666658	1.2424000000000002	1.1
810.6282560762237	0.20129999999999992	1.284266666666667	1.1
810.2353312299326	0.19603333333333325	1.2596000000000003	1.1
810.2357340977868	0.17699999999999994	1.16	1.1
810.2357340977868	0.19869999999999993	1.1604	1.1
810.2357340977868	0.19993333333333324	1.1624	1.1
809.5487091914002	0.1911999999999999	1.16	1.1
809.5487091914002	0.1911999999999999	1.1616	1.1
809.4581532550756	0.19779999999999992	1.1616	1.1
809.4581532550756	0.19183333333333327	1.2266666666666668	1.1
809.1700867140788	0.1838666666666666	1.2410666666666668	1.1
808.1993751814949	0.1999666666666666	1.2118666666666669	1.1
808.1005413457534	0.18983333333333327	1.1600000000000001	1.1
808.1005575302561	0.19023333333333325	1.1605333333333334	1.1
808.1005575302561	0.20263333333333325	1.235066666666667	1.1
807.9944888709904	0.19099999999999995	1.2105333333333337	1.1
807.8092841954949	0.19133333333333324	1.16	1.1
807.8092841954949	0.18646666666666661	1.2372000000000003	1.1
807.8092841954949	0.19059999999999994	1.3168000000000002	1.1
807.8047998253825	0.19059999999999994	1.3200000000000003	1.1
807.713399740895	0.20376666666666657	1.2021333333333335	1.1
807.4230488433839	0.2035666666666666	1.2021333333333335	1.1
807.4230488433839	0.20059999999999992	1.16	1.1
807.0314676878268	0.1929666666666666	1.1604	1.1
806.9380812978859	0.19973333333333326	1.1625333333333336	1.1
806.2643087218764	0.18359999999999996	1.145066666666667	1.1
806.2643087218764	0.19066666666666657	1.1813333333333333	1.1
806.0755181893319	0.18759999999999993	1.2449333333333337	1.1
806.0766723451266	0.1921333333333333	1.2253333333333336	1.1
805.9349629335129	0.1888666666666666	1.187066666666667	1.1
805.9349629335129	0.20099999999999996	1.2013333333333336	1.1
804.955857887747	0.20099999999999996	1.1609333333333334	1.1
804.721324244071	0.1926666666666666	1.1600000000000001	1.1
804.6285397403695	0.19039999999999993	1.1600000000000001	1.1
804.6274505711311	0.17619999999999994	1.1469333333333334	1.1
804.6274505711311	0.1858333333333333	1.1226666666666667	1.1
804.4411131192728	0.19093333333333326	1.1065333333333334	1.1
804.3364165425667	0.18679999999999994	1.0812	1.1
804.3443310269819	0.1899333333333333	1.1050666666666669	1.1
804.3443310269819	0.18069999999999994	1.1462666666666665	1.1
804.0507274684223	0.18959999999999994	1.1586666666666667	1.1
804.0507274684223	0.1984666666666666	1.1658666666666666	1.1
803.2882627876814	0.18469999999999995	1.2002666666666668	1.1
803.2882627876814	0.18469999999999995	1.1628	1.1
803.2487426653167	0.18913333333333326	1.16	1.1
802.8110882095319	0.17916666666666659	1.16	1.1
802.723168857361	0.1865666666666666	1.1676000000000002	1.1
802.723168857361	0.1870999999999999	1.2580000000000002	1.1
802.3357268978272	0.1947666666666666	1.2316000000000003	1.1
801.3783607351139	0.1837666666666666	1.1137333333333332	1.1
801.3803844246098	0.17846666666666658	1.092	1.1
801.2848088892553	0.1776666666666666	1.1005333333333331	1.1
801.2848088892553	0.18889999999999996	1.1598666666666668	1.1
801.2822282893335	0.1924666666666666	1.2161333333333335	1.1
801.1911128455016	0.19129999999999994	1.2113333333333334	1.1
801.0993760726018	0.19129999999999994	1.0921333333333332	1.1
801.0993760726018	0.18103333333333324	1.0809333333333333	1.1
801.0901297725969	0.17623333333333327	1.0809333333333333	1.1
801.1004704083874	0.17803333333333327	1.0782666666666667	1.1
800.8127214075035	0.17453333333333326	1.0781333333333336	1.1
800.8127214075035	0.18733333333333324	1.1481333333333332	1.1
801.079748678514	0.19499999999999995	1.1598666666666668	1.1
801.079748678514	0.18033333333333326	1.1460000000000001	1.1
800.4277671188812	0.1751666666666666	1.0969333333333333	1.1
800.4277671188812	0.18579999999999994	1.0813333333333335	1.1
800.1477775982959	0.1768333333333333	1.100666666666667	1.1
