wavelength(nm)	flourescence PMT(V)	ti_saph Power (V)	Gain (V)
800.8105807113917	0.18646666666666661	1.1614666666666669	1.1
800.8105807113917	0.19783333333333328	1.1602666666666668	1.1
801.1031619894732	0.18913333333333326	1.1245333333333334	1.1
801.0949675930602	0.17679999999999993	1.076	1.1
801.0960317652614	0.17679999999999993	1.0766666666666667	1.1
801.0960317652614	0.1777666666666666	1.114	1.1
801.2801907980171	0.1892999999999999	1.114	1.1
801.2825669959133	0.18689999999999993	1.1637333333333333	1.1
801.3864580270846	0.1850999999999999	1.1601333333333335	1.1
801.3864580270846	0.1802999999999999	1.1325333333333334	1.1
802.295319939873	0.1802666666666666	1.1369333333333336	1.1
802.7172248910435	0.18153333333333327	1.1404000000000003	1.1
802.7200811345732	0.19959999999999994	1.1658666666666668	1.1
802.7200811345732	0.18649999999999992	1.2885333333333335	1.1
802.7201273731349	0.18719999999999995	1.2810666666666668	1.1
803.4815621376187	0.17819999999999994	1.1712	1.1
804.008821605007	0.17819999999999994	1.1962666666666668	1.1
804.008821605007	0.1947666666666666	1.2098666666666669	1.1
803.9684284721792	0.18973333333333328	1.2098666666666669	1.1
804.1445379825777	0.18073333333333327	1.1453333333333333	1.1
804.3478350999699	0.17989999999999995	1.1542666666666668	1.1
804.4390947209072	0.17909999999999995	1.1597333333333335	1.1
804.4390947209072	0.1824666666666666	1.16	1.1
804.4390947209072	0.1785666666666666	1.0857333333333334	1.1
804.6271243599655	0.17719999999999994	1.0877333333333332	1.1
804.7204123623205	0.1942666666666666	1.1553333333333333	1.1
804.7204123623205	0.18153333333333327	1.1489333333333336	1.1
804.6280505606424	0.1910666666666666	1.1581333333333335	1.1
804.7299840477316	0.18139999999999992	1.2133333333333336	1.1
805.7802364962279	0.18139999999999992	1.2340000000000002	1.1
805.7802364962279	0.1881666666666666	1.2340000000000002	1.1
806.0707122089057	0.18439999999999993	1.2301333333333335	1.1
806.0745624127107	0.2047666666666666	1.274666666666667	1.1
806.2587714309793	0.19523333333333323	1.241866666666667	1.1
806.2587714309793	0.1902999999999999	1.1828	1.1
806.9389253477494	0.18649999999999992	1.1680000000000004	1.1
806.9388806718027	0.19326666666666661	1.1600000000000001	1.1
807.4178970369159	0.1871666666666666	1.16	1.1
807.4178970369159	0.18453333333333327	1.16	1.1
807.4178970369159	0.19003333333333325	1.16	1.1
807.6188832697219	0.19003333333333325	1.1733333333333333	1.1
807.8037525079587	0.18873333333333328	1.1894666666666667	1.1
807.8037525079587	0.19333333333333327	1.1894666666666667	1.1
807.8108401070125	0.19576666666666662	1.2704000000000004	1.1
807.9945235994534	0.18573333333333328	1.273066666666667	1.1
807.9001025611196	0.19089999999999993	1.2248	1.1
807.9001025611196	0.20973333333333324	1.2376000000000003	1.1
808.1041565932615	0.19739999999999994	1.2996	1.1
808.1951367793918	0.19319999999999993	1.2364000000000002	1.1
808.1983723968898	0.1934666666666666	1.1601333333333337	1.1
808.1983723968898	0.18293333333333328	1.156266666666667	1.1
808.292644365768	0.18653333333333327	1.159066666666667	1.1
808.292644365768	0.18653333333333327	1.257466666666667	1.1
809.4559365101654	0.18953333333333328	1.257466666666667	1.1
809.4559365101654	0.19639999999999994	1.2624000000000002	1.1
809.4523222047181	0.1959666666666666	1.223466666666667	1.1
809.4516903275874	0.1873666666666666	1.1993333333333336	1.1
809.4552223399743	0.19043333333333326	1.1878666666666666	1.1
809.4552223399743	0.1833666666666666	1.1658666666666668	1.1
810.2342182405989	0.19016666666666662	1.205466666666667	1.1
810.2321497620516	0.1938666666666666	1.1614666666666669	1.1
810.7168018763954	0.19189999999999993	1.2781333333333336	1.1
810.7168018763954	0.1944666666666666	1.262	1.1
810.7167520736892	0.1944666666666666	1.2705333333333335	1.1
811.1073423172375	0.20263333333333325	1.3325333333333338	1.1
811.1115040649574	0.18549999999999991	1.3325333333333338	1.1
811.1115040649574	0.1982666666666666	1.3357333333333337	1.1
811.1115040649574	0.19959999999999994	1.3536000000000001	1.1
811.407493419151	0.2093666666666666	1.3912	1.1
811.4080362992419	0.19253333333333325	1.3846666666666667	1.1
811.4080362992419	0.19893333333333327	1.354	1.1
811.499530133238	0.18399999999999994	1.1750666666666667	1.1
811.5005368617356	0.17983333333333326	1.16	1.1
811.8019390535782	0.1945999999999999	1.1600000000000001	1.1
811.8019390535782	0.18763333333333326	1.1598666666666668	1.1
811.7995605478729	0.18763333333333326	1.1877333333333335	1.1
811.8965027582683	0.1835666666666666	1.3632000000000002	1.1
812.9760493296527	0.2088666666666666	1.3632000000000002	1.1
812.9767775854186	0.19709999999999994	1.3289333333333335	1.1
812.9767775854186	0.18723333333333325	1.2866666666666666	1.1
813.1660770111108	0.1892666666666666	1.3186666666666669	1.1
813.1594310264842	0.1963666666666666	1.3280000000000003	1.1
813.1594310264842	0.20183333333333328	1.3472000000000002	1.1
813.1594310264842	0.18453333333333327	1.2617333333333336	1.1
813.1594310264842	0.1869666666666666	1.2572	1.1
814.5356297623517	0.1915666666666666	1.3252000000000002	1.1
814.7374710777297	0.19376666666666661	1.3804	1.1
814.7374710777297	0.19376666666666661	1.398	1.1
814.7362019629078	0.20119999999999996	1.4004	1.1
814.7417365269268	0.19533333333333328	1.4004	1.1
814.742998277135	0.19959999999999994	1.3994666666666669	1.1
814.742998277135	0.19363333333333324	1.4002666666666668	1.1
815.133279846055	0.1902999999999999	1.2337333333333336	1.1
815.1317953629322	0.18456666666666657	1.16	1.1
815.3220031286421	0.18973333333333328	1.1809333333333334	1.1
815.3220031286421	0.19366666666666657	1.3212000000000002	1.1
815.321931261928	0.1867666666666666	1.3292000000000004	1.1
816.2054013585486	0.1852666666666666	1.2429333333333337	1.1
816.2132233698563	0.18703333333333327	1.16	1.1
816.2132233698563	0.18703333333333327	1.1600000000000001	1.1
816.8109918016628	0.18499999999999994	1.2913333333333337	1.1
817.0018799729149	0.1743666666666666	1.2913333333333337	1.1
817.4004736046239	0.17619999999999994	1.3086666666666669	1.1
817.4004736046239	0.18643333333333326	1.3201333333333336	1.1
817.5018380482462	0.18279999999999993	1.2780000000000002	1.1
817.4915649126518	0.1821666666666666	1.2392	1.1
817.7928210629773	0.17819999999999994	1.1620000000000001	1.1
817.7928210629773	0.18266666666666662	1.315066666666667	1.1
817.7928210629773	0.1793333333333333	1.2722666666666669	1.1
818.2937658431599	0.17839999999999995	1.1784000000000001	1.1
818.5896328513647	0.17839999999999995	1.163066666666667	1.1
818.5896328513647	0.17779999999999996	1.1989333333333336	1.1
818.5927264224883	0.1768333333333333	1.1989333333333336	1.1
818.5932512276792	0.1747666666666666	1.16	1.1
818.6893922425306	0.17839999999999995	1.16	1.1
818.6893922425306	0.17189999999999994	1.16	1.1
818.6894450275663	0.1810333333333333	1.3077333333333334	1.1
819.7886430659855	0.17556666666666662	1.3474666666666668	1.1
819.7885923582044	0.17846666666666658	1.3709333333333336	1.1
819.7878948007515	0.1739999999999999	1.3390666666666668	1.1
819.7878948007515	0.17999999999999997	1.319066666666667	1.1
820.6310095122432	0.17706666666666662	1.3380000000000003	1.1
820.588986018854	0.17959999999999993	1.3216000000000003	1.1
820.586985605797	0.17959999999999993	1.3177333333333336	1.1
820.586985605797	0.1776999999999999	1.3318666666666668	1.1
821.0867391757077	0.18303333333333327	1.3318666666666668	1.1
821.0867391757077	0.1827666666666666	1.3865333333333334	1.1
821.7945530008216	0.18139999999999992	1.3317333333333337	1.1
821.7945530008216	0.17113333333333328	1.3934666666666666	1.1
821.7960162639423	0.17599999999999993	1.4	1.1
821.8891465186227	0.17209999999999995	1.4001333333333335	1.1
821.8891465186227	0.18516666666666662	1.401066666666667	1.1
821.8891465186227	0.17899999999999994	1.4	1.1
822.1823424887991	0.1671333333333333	1.3378666666666668	1.1
822.1811939038965	0.17429999999999993	1.3212000000000002	1.1
822.2952840766249	0.17429999999999993	1.3086666666666669	1.1
822.2952840766249	0.16973333333333326	1.2712000000000003	1.1
822.6903587160904	0.1681666666666666	1.2712000000000003	1.1
823.5011291600644	0.16853333333333326	1.372666666666667	1.1
823.4967355978753	0.17339999999999994	1.4077333333333333	1.1
823.4967355978753	0.16449999999999992	1.4298666666666666	1.1
823.8984163837761	0.16513333333333327	1.3948000000000003	1.1
823.8984163837761	0.16609999999999994	1.3796000000000002	1.1
824.4012605261387	0.16813333333333325	1.3856	1.1
824.4012605261387	0.1717666666666666	1.320266666666667	1.1
824.4012645468516	0.15983333333333327	1.275066666666667	1.1
824.4012191573785	0.15769999999999992	1.2304	1.1
825.0051392395648	0.15769999999999992	1.3881333333333334	1.1
825.0051392395648	0.15879999999999994	1.3881333333333334	1.1
824.80972507128	0.16006666666666663	1.4676	1.1
825.2100080003163	0.1665666666666666	1.3456000000000001	1.1
825.2100080003163	0.16699999999999993	1.2849333333333335	1.1
825.2100080003163	0.1612666666666666	1.3941333333333334	1.1
825.3076607472073	0.17129999999999992	1.4698666666666664	1.1
825.6163610987871	0.1708666666666666	1.4798666666666667	1.1
825.6174681446757	0.16709999999999994	1.4464	1.1
825.6174635369855	0.17196666666666663	1.3762666666666667	1.1
825.6174635369855	0.16763333333333327	1.3938666666666668	1.1
826.1178384367879	0.15973333333333326	1.3166666666666669	1.1
826.1187590347912	0.15973333333333326	1.48	1.1
826.5249844817951	0.15919999999999995	1.48	1.1
826.5249844817951	0.16816666666666663	1.4749333333333334	1.1
827.034641700436	0.15829999999999994	1.2796	1.1
827.3360325259312	0.15653333333333327	1.3201333333333336	1.1
827.3351691627723	0.15189999999999995	1.3253333333333335	1.1
827.3351691627723	0.15793333333333326	1.3200000000000003	1.1
827.7470936672037	0.15979999999999994	1.3200000000000003	1.1
828.0425731682284	0.16399999999999995	1.4445333333333334	1.1
828.0562171058414	0.1714666666666666	1.48	1.1
828.0562171058414	0.16776666666666662	1.48	1.1
828.0406112711196	0.16776666666666662	1.48	1.1
828.6595929684365	0.16129999999999994	1.333466666666667	1.1
828.6583456661177	0.16199999999999992	1.333466666666667	1.1
828.6583456661177	0.15863333333333327	1.325866666666667	1.1
828.8566218659834	0.1596333333333333	1.3301333333333336	1.1
829.2675880303519	0.16543333333333327	1.4353333333333331	1.1
829.3791087260918	0.1635666666666666	1.3206666666666669	1.1
829.3791087260918	0.15683333333333327	1.3756000000000002	1.1
829.3772766057715	0.15873333333333325	1.4541333333333333	1.1
829.5782145297089	0.1581666666666666	1.4088	1.1
829.9913752480927	0.1631666666666666	1.3208000000000004	1.1
829.9913752480927	0.1603666666666666	1.3353333333333337	1.1
829.9913742529737	0.1603666666666666	1.3253333333333335	1.1
830.3982223198919	0.16653333333333326	1.3460000000000003	1.1
830.400248076365	0.15639999999999996	1.3460000000000003	1.1
830.400248076365	0.16629999999999992	1.4004	1.1
830.400248076365	0.1616666666666666	1.4520000000000002	1.1
831.1166027385658	0.1593666666666666	1.3248000000000002	1.1
831.5320282647017	0.16376666666666662	1.360266666666667	1.1
831.5320282647017	0.16203333333333328	1.4634666666666665	1.1
831.5320282647017	0.16166666666666663	1.4433333333333334	1.1
831.7255314005714	0.17006666666666662	1.3192000000000004	1.1
832.1368291301211	0.15749999999999995	1.2473333333333334	1.1
832.137894614781	0.1662333333333333	1.4194666666666669	1.1
832.137894614781	0.1662333333333333	1.4410666666666667	1.1
832.137894614781	0.16819999999999993	1.3728	1.1
832.6503567557462	0.1777666666666666	1.3728	1.1
832.751475358037	0.17913333333333326	1.4801333333333333	1.1
832.751475358037	0.17283333333333326	1.4336	1.1
832.9635060151398	0.17433333333333328	1.3972	1.1
832.9635133747427	0.18693333333333328	1.4037333333333333	1.1
833.3767939511802	0.1735333333333333	1.3981333333333335	1.1
833.3767939511802	0.19476666666666662	1.327866666666667	1.1
833.3745276582601	0.1903666666666666	1.3584000000000003	1.1
833.6887562786593	0.19069999999999993	1.3318666666666668	1.1
833.8861683696156	0.1885999999999999	1.1565333333333334	1.1
833.8861683696156	0.1885999999999999	1.0813333333333335	1.1
833.8853133002899	0.19653333333333325	1.0461333333333334	1.1
834.3002360376573	0.21669999999999986	1.0461333333333334	1.1
834.8201104515418	0.22619999999999996	1.0745333333333333	1.1
834.8201104515418	0.17803333333333327	0.48400000000000004	1.1
834.9252902611333	0.15709999999999993	0.2173333333333335	1.1
835.0285278176298	0.1475666666666666	0.1514666666666668	1.1
835.3450830073268	0.13633333333333325	0.05706666666666672	1.1
835.3450830073268	0.12966666666666662	0.01200000000000001	1.1
835.6518003764356	0.11189999999999996	-0.031333333333333366	1.1
835.86153078818	0.1030333333333333	-0.030533333333333357	1.1
835.7583407014598	0.10869999999999995	-0.03213333333333336	1.1
835.7583407014598	0.10869999999999995	-0.032266666666666693	1.1
836.378349979035	0.09906666666666662	-0.031200000000000026	1.1
836.5834874650752	0.09996666666666662	-0.031200000000000026	1.1
836.5790791603705	0.10519999999999996	-0.03213333333333336	1.1
836.5790791603705	0.10399999999999995	-0.03213333333333336	1.1
836.7897698429747	0.10486666666666664	-0.03173333333333336	1.1
837.1057965875843	0.1050333333333333	-0.0334666666666667	1.1
837.1059384559923	0.10683333333333328	-0.03293333333333336	1.1
837.1059384559923	0.10726666666666662	-0.03400000000000003	1.1
837.4185382273183	0.10966666666666662	-0.032533333333333365	1.1
837.7319755584497	0.1124666666666666	-0.03266666666666669	1.1
837.8285303745256	0.11066666666666664	-0.031600000000000024	1.1
838.1481026820978	0.11066666666666664	-0.0338666666666667	1.1
838.1481026820978	0.11113333333333328	-0.0338666666666667	1.1
838.5603091213524	0.1137333333333333	-0.0350666666666667	1.1
838.5612016924136	0.10586666666666664	-0.03293333333333336	1.1
839.084765510374	0.10223333333333329	-0.03106666666666669	1.1
839.084765510374	0.10883333333333331	-0.031200000000000026	1.1
839.0889205296768	0.10676666666666662	-0.03200000000000003	1.1
839.0860540003841	0.10559999999999996	-0.03213333333333336	1.1
839.4049701386175	0.10369999999999994	-0.03333333333333336	1.1
839.4049701386175	0.10323333333333329	-0.032533333333333365	1.1
839.9214559522751	0.10999999999999996	-0.031866666666666696	1.1
840.3459798354406	0.10999999999999996	-0.03080000000000003	1.1
840.3459798354406	0.10613333333333329	-0.029066666666666692	1.1
840.3459798354406	0.10226666666666662	-0.029066666666666692	1.1
840.6611448834386	0.1031333333333333	-0.030533333333333357	1.1
840.6158977268562	0.10759999999999996	-0.03080000000000003	1.1
840.6611970438196	0.11156666666666662	-0.0334666666666667	1.1
840.6611970438196	0.10079999999999996	-0.03093333333333336	1.1
840.6611970438196	0.10199999999999995	-0.030533333333333357	1.1
840.6611970438196	0.11349999999999995	-0.03240000000000003	1.1
841.2876548687306	0.10686666666666662	-0.032266666666666693	1.1
841.2876548687306	0.10969999999999996	-0.03266666666666669	1.1
841.6021324117422	0.1015333333333333	-0.030666666666666693	1.1
841.6013606416683	0.1015333333333333	-0.03320000000000003	1.1
841.810520894181	0.10393333333333328	-0.031866666666666696	1.1
841.810520894181	0.10459999999999996	-0.031866666666666696	1.1
841.8167908444392	0.10449999999999995	-0.031866666666666696	1.1
842.0235877717097	0.10486666666666662	-0.0338666666666667	1.1
842.9759646764604	0.10646666666666663	-0.03320000000000003	1.1
842.9759646764604	0.10449999999999995	-0.032533333333333365	1.1
842.9162987939299	0.10489999999999995	-0.032266666666666693	1.1
843.2925551528649	0.10186666666666663	-0.030666666666666693	1.1
843.3979693105437	0.1087333333333333	-0.032266666666666693	1.1
843.3979693105437	0.11066666666666664	-0.03413333333333336	1.1
843.6058946995458	0.10533333333333329	-0.03280000000000003	1.1
844.3461088546024	0.10533333333333329	-0.03333333333333336	1.1
844.5567851028969	0.10839999999999994	-0.03333333333333336	1.1
844.5543104915255	0.10146666666666661	-0.03373333333333336	1.1
844.5543104915255	0.10886666666666661	-0.0350666666666667	1.1
844.6657077404985	0.10419999999999996	-0.02946666666666669	1.1
844.7706161450905	0.10866666666666662	-0.03320000000000003	1.1
844.7706161450905	0.10289999999999996	-0.03173333333333336	1.1
844.7706161450905	0.10726666666666664	-0.03200000000000003	1.1
844.9860031655727	0.1112333333333333	-0.03400000000000003	1.1
843.075400194796	0.10239999999999995	-0.03106666666666669	1.1
843.0755311353043	0.10473333333333329	-0.02853333333333336	1.1
842.4492681882166	0.10416666666666662	-0.030400000000000028	1.1
842.4492681882166	0.10939999999999998	-0.03400000000000003	1.1
842.3367625470955	0.10769999999999996	-0.031866666666666696	1.1
842.0281958350687	0.10586666666666662	-0.03240000000000003	1.1
841.6040868604234	0.10586666666666662	-0.03146666666666669	1.1
841.6040868604234	0.1010333333333333	-0.030533333333333357	1.1
841.287713639403	0.11046666666666662	-0.030533333333333357	1.1
841.4959077965711	0.10729999999999995	-0.031333333333333366	1.1
841.4959077965711	0.10553333333333328	-0.03280000000000003	1.1
841.2876028594934	0.10479999999999995	-0.03333333333333336	1.1
841.2876028594934	0.10299999999999995	-0.030000000000000023	1.1
840.8682527970388	0.10533333333333329	-0.030666666666666693	1.1
840.6614441510064	0.10956666666666663	-0.031333333333333366	1.1
840.8678569986831	0.10196666666666662	-0.029866666666666694	1.1
840.8678569986831	0.10386666666666662	-0.032266666666666693	1.1
840.3015635421232	0.10303333333333328	-0.03240000000000003	1.1
840.3440372265725	0.10303333333333328	-0.03146666666666669	1.1
839.9241819260748	0.10799999999999994	-0.0334666666666667	1.1
839.9241819260748	0.11316666666666662	-0.0334666666666667	1.1
839.5050128885966	0.10693333333333328	-0.03293333333333336	1.1
839.5094564846819	0.10096666666666664	-0.030000000000000023	1.1
838.9800206580936	0.10509999999999996	-0.03173333333333336	1.1
838.9800206580936	0.10323333333333329	-0.03280000000000003	1.1
838.9787882080388	0.11179999999999995	-0.03280000000000003	1.1
838.9782793880664	0.10919999999999996	-0.03333333333333336	1.1
838.9799651635298	0.10856666666666662	-0.03320000000000003	1.1
838.9799651635298	0.10929999999999995	-0.02973333333333336	1.1
838.2926350291773	0.10389999999999996	-0.03173333333333336	1.1
838.2926350291773	0.10389999999999996	-0.032266666666666693	1.1
837.8270000047834	0.10829999999999994	-0.032266666666666693	1.1
837.8270000047834	0.10396666666666662	-0.03173333333333336	1.1
837.5141103172484	0.09926666666666663	-0.030266666666666695	1.1
837.3126755199461	0.10853333333333329	-0.032266666666666693	1.1
837.1072457641342	0.1035333333333333	-0.03093333333333336	1.1
837.1072457641342	0.10483333333333328	-0.031866666666666696	1.1
837.0040052146728	0.1050333333333333	-0.03280000000000003	1.1
836.7980321920205	0.1015333333333333	-0.030000000000000023	1.1
836.7981305910376	0.10486666666666662	-0.031866666666666696	1.1
836.7981305910376	0.10389999999999996	-0.0338666666666667	1.1
836.5760425079972	0.10389999999999996	-0.029866666666666694	1.1
836.1655962671289	0.10156666666666662	-0.03200000000000003	1.1
836.0622076961948	0.10399999999999997	-0.03200000000000003	1.1
836.0622076961948	0.11133333333333328	-0.033066666666666696	1.1
835.8617621642426	0.09926666666666663	-0.03333333333333336	1.1
835.8618692591748	0.11536666666666662	-0.034266666666666695	1.1
835.6477244552746	0.10189999999999995	-0.03200000000000003	1.1
835.4392215015317	0.11043333333333327	-0.02053333333333335	1.1
835.4392215015317	0.11989999999999995	-0.002133333333333335	1.1
835.0247339345663	0.13329999999999995	0.03973333333333337	1.1
835.024657409286	0.14676666666666663	0.10880000000000009	1.1
834.4064865819507	0.1623666666666666	0.19506666666666683	1.1
834.4064865819507	0.2002666666666666	0.6338666666666668	1.1
834.3045005669869	0.2002666666666666	1.0634666666666668	1.1
834.308865537832	0.22169999999999992	1.0786666666666667	1.1
833.8875834806552	0.2215999999999999	1.0786666666666667	1.1
833.8875834806552	0.1961666666666666	1.1606666666666667	1.1
833.686151197371	0.1999666666666666	1.1628	1.1
833.686151197371	0.18963333333333324	1.2290666666666668	1.1
833.3730226735465	0.1836666666666666	1.3248000000000002	1.1
833.3730226735465	0.18019999999999992	1.354	1.1
833.3763322075251	0.18429999999999994	1.3694666666666668	1.1
832.9554425730031	0.17793333333333328	1.3944	1.1
832.9633237310616	0.1769666666666666	1.4027999999999998	1.1
832.9633237310616	0.18009999999999995	1.3973333333333335	1.1
832.7527428154635	0.18009999999999995	1.3429333333333338	1.1
832.7527428154635	0.1734666666666666	1.4216	1.1
832.5532009781924	0.1761666666666666	1.4216	1.1
832.5532009781924	0.17299999999999996	1.3806666666666667	1.1
832.1390802407952	0.16759999999999994	1.4025333333333334	1.1
831.7255037674221	0.1577666666666666	1.3453333333333335	1.1
831.7284783404875	0.15436666666666662	1.2409333333333337	1.1
831.7284783404875	0.16449999999999992	1.3084000000000002	1.1
831.5206136794155	0.16579999999999995	1.4798666666666667	1.1
831.1177826297082	0.15156666666666663	1.48	1.1
831.2172549167221	0.16853333333333326	1.48	1.1
830.3921236241719	0.16146666666666662	1.3626666666666667	1.1
830.3921236241719	0.16146666666666662	1.3785333333333336	1.1
830.3939960263622	0.16133333333333325	1.3785333333333336	1.1
830.0852493260726	0.16953333333333329	1.4004	1.1
829.985611192052	0.1607666666666666	1.3812000000000002	1.1
829.985611192052	0.15359999999999996	1.4058666666666666	1.1
829.5771402381102	0.16416666666666663	1.3977333333333335	1.1
829.3808041694052	0.15703333333333327	1.4366666666666668	1.1
829.3787976375229	0.16603333333333328	1.48	1.1
829.3787976375229	0.17039999999999994	1.5022666666666664	1.1
829.380903410144	0.1606666666666666	1.4914666666666667	1.1
828.8567546375938	0.16653333333333326	1.4489333333333332	1.1
828.6573101378389	0.17043333333333327	1.478133333333333	1.1
828.6573101378389	0.17043333333333327	1.3308000000000004	1.1
828.5611599465002	0.1614666666666666	1.4364	1.1
828.0442448431784	0.15923333333333328	1.4364	1.1
827.8416290749717	0.16283333333333327	1.48	1.1
827.8416290749717	0.1626666666666666	1.4802666666666666	1.1
827.8416290749717	0.1511333333333333	1.4716	1.1
827.3352594689201	0.1527666666666666	1.354666666666667	1.1
827.2892812729303	0.16009999999999996	1.3392000000000004	1.1
827.2892812729303	0.1643666666666666	1.3644	1.1
827.2892812729303	0.15869999999999995	1.3298666666666668	1.1
826.8815983522246	0.16283333333333327	1.2913333333333337	1.1
826.1253134908756	0.16546666666666662	1.3774666666666668	1.1
826.1253134908756	0.16546666666666662	1.48	1.1
826.1161198732979	0.1688666666666666	1.4076	1.1
825.6211080660134	0.1799666666666666	1.4076	1.1
825.6148460171653	0.1608666666666666	1.3324000000000003	1.1
825.3123758882263	0.16393333333333326	1.4132	1.1
825.3123758882263	0.16669999999999993	1.4469333333333332	1.1
825.3152123280015	0.17066666666666658	1.4778666666666667	1.1
825.2114722800831	0.16376666666666662	1.3769333333333336	1.1
825.2130606128843	0.15503333333333327	1.310266666666667	1.1
825.2130606128843	0.15999999999999992	1.2376000000000003	1.1
824.807594140444	0.16923333333333326	1.4416	1.1
824.404922406332	0.1666666666666666	1.3445333333333336	1.1
824.4019130388058	0.1666666666666666	1.3269333333333335	1.1
824.4019130388058	0.16949999999999993	1.3830666666666667	1.1
824.4019130388058	0.16753333333333326	1.3830666666666667	1.1
824.0955073729591	0.17296666666666663	1.3884	1.1
823.9031674963131	0.16633333333333328	1.3530666666666666	1.1
823.9031674963131	0.17173333333333327	1.3237333333333337	1.1
823.4975485266605	0.1728666666666666	1.4692	1.1
823.4970421942324	0.17079999999999992	1.48	1.1
823.4970421942324	0.18009999999999993	1.48	1.1
823.4970421942324	0.18809999999999993	1.4466666666666668	1.1
822.1888860608564	0.1705333333333333	1.322266666666667	1.1
822.1945430588602	0.1692666666666666	1.3133333333333337	1.1
822.1895771289597	0.1692666666666666	1.3217333333333336	1.1
822.1895771289597	0.17909999999999995	1.3817333333333337	1.1
821.8875663432082	0.17179999999999992	1.3817333333333337	1.1
821.8894233519889	0.1820333333333333	1.4049333333333334	1.1
821.7917922196781	0.17719999999999994	1.4082666666666668	1.1
821.7917922196781	0.1776666666666666	1.4	1.1
821.7890621687078	0.1730666666666666	1.3690666666666669	1.1
821.3906109752279	0.17236666666666658	1.3284	1.1
821.0889030314347	0.19103333333333325	1.3992	1.1
821.0889030314347	0.1774666666666666	1.3993333333333333	1.1
820.5877807826024	0.18396666666666658	1.3388000000000004	1.1
820.5888164871828	0.17909999999999995	1.319866666666667	1.1
820.5909930584514	0.17909999999999995	1.332266666666667	1.1
820.5909930584514	0.17649999999999993	1.332266666666667	1.1
819.7908770478618	0.16806666666666661	1.3745333333333336	1.1
819.8861694614593	0.1822666666666666	1.384266666666667	1.1
819.3887055340414	0.1821666666666666	1.3854666666666668	1.1
818.6903663197984	0.17829999999999993	1.3326666666666669	1.1
818.6903663197984	0.1836666666666666	1.319866666666667	1.1
818.5933333988247	0.18103333333333324	1.241866666666667	1.1
818.5904554011021	0.17523333333333327	1.2041333333333333	1.1
818.4988785579591	0.17113333333333328	1.1786666666666668	1.1
818.4988785579591	0.1949999999999999	1.241466666666667	1.1
818.2937180962905	0.18099999999999994	1.239866666666667	1.1
818.1979559883645	0.18099999999999994	1.2737333333333336	1.1
818.1975225673638	0.17303333333333326	1.3430666666666669	1.1
818.1975225673638	0.18279999999999993	1.3430666666666669	1.1
817.7978688174005	0.18639999999999993	1.3148000000000002	1.1
817.4912937671833	0.18249999999999994	1.2074666666666667	1.1
817.3997418734892	0.18403333333333327	1.2468000000000004	1.1
817.3997418734892	0.17256666666666662	1.3201333333333336	1.1
816.9053688973183	0.18523333333333325	1.2940000000000003	1.1
816.8134242094098	0.18669999999999992	1.3197333333333336	1.1
816.2150804083202	0.1905666666666666	1.3612000000000004	1.1
816.2150804083202	0.18509999999999993	1.1612	1.1
816.2094238576088	0.17599999999999993	1.16	1.1
816.2094238576088	0.17599999999999993	1.3214666666666668	1.1
815.3207643466246	0.19059999999999994	1.3788000000000002	1.1
815.3207643466246	0.18959999999999994	1.3788000000000002	1.1
815.1232331725691	0.1863666666666666	1.3004000000000004	1.1
814.7365989044371	0.1849666666666666	1.1612000000000002	1.1
814.7366211115573	0.18139999999999992	1.1980000000000002	1.1
814.7366211115573	0.2026666666666666	1.3997333333333333	1.1
814.7366211115573	0.2022666666666666	1.4042666666666666	1.1
814.7418477752827	0.19176666666666659	1.4014666666666666	1.1
814.5405427560835	0.2028666666666666	1.3986666666666667	1.1
814.5405427560835	0.18753333333333325	1.3177333333333334	1.1
814.5405427560835	0.17643333333333325	1.2326666666666668	1.1
814.5405427560835	0.17643333333333325	1.2397333333333336	1.1
813.1671556095092	0.1772666666666666	1.3128000000000002	1.1
813.0691873734107	0.19643333333333327	1.3128000000000002	1.1
813.0691873734107	0.19053333333333328	1.3197333333333336	1.1
812.9758746814525	0.18826666666666658	1.2817333333333336	1.1
812.677279860491	0.1978999999999999	1.286666666666667	1.1
812.677279860491	0.1950666666666666	1.3520000000000003	1.1
812.677279860491	0.1910666666666666	1.3624	1.1
811.5048638494857	0.19306666666666658	1.2705333333333335	1.1
811.5082345455595	0.18543333333333328	1.1598666666666668	1.1
811.5006579085399	0.18349999999999994	1.1252	1.1
811.5006579085399	0.18903333333333328	1.1657333333333335	1.1
811.4052220693336	0.18903333333333328	1.2668000000000001	1.1
811.4051734210716	0.18803333333333327	1.3225333333333338	1.1
811.4052198956954	0.18949999999999995	1.3225333333333338	1.1
811.4052198956954	0.19463333333333324	1.3241333333333336	1.1
811.2019957903459	0.20619999999999994	1.3536000000000001	1.1
811.1090168564991	0.20253333333333326	1.4018666666666666	1.1
810.6250656750293	0.20203333333333326	1.3812000000000002	1.1
810.6250656750293	0.19229999999999994	1.2265333333333337	1.1
810.6245134515221	0.19559999999999994	1.2316000000000003	1.1
810.2366387963133	0.1899666666666666	1.2552	1.1
809.5520676313894	0.1902666666666666	1.1598666666666668	1.1
809.5520676313894	0.18696666666666661	1.1694666666666669	1.1
809.4547654258145	0.18696666666666661	1.175866666666667	1.1
809.4555068412546	0.18469999999999995	1.1604	1.1
809.4530146418919	0.18199999999999994	1.1604	1.1
809.4530146418919	0.18779999999999994	1.1606666666666667	1.1
809.1579382526594	0.18889999999999993	1.1629333333333336	1.1
808.197317063853	0.19143333333333326	1.1700000000000002	1.1
808.1992821636705	0.18023333333333327	1.1605333333333336	1.1
808.1039833101431	0.1847666666666666	1.16	1.1
808.1039833101431	0.19279999999999992	1.161066666666667	1.1
807.9002179396562	0.19083333333333324	1.1618666666666668	1.1
807.9045261713694	0.19173333333333328	1.1602666666666668	1.1
807.8046420008261	0.17976666666666663	1.1737333333333333	1.1
807.8046420008261	0.17976666666666663	1.296666666666667	1.1
807.8046420008261	0.1971333333333333	1.313466666666667	1.1
807.4187480584222	0.1916666666666666	1.313466666666667	1.1
807.4177536421278	0.18416666666666662	1.2292	1.1
807.4177536421278	0.1844666666666666	1.1597333333333333	1.1
807.0327066249455	0.18916666666666662	1.1592000000000002	1.1
807.028933645572	0.19773333333333326	1.1602666666666668	1.1
806.8456727738655	0.19473333333333326	1.1853333333333333	1.1
806.8456727738655	0.19123333333333328	1.1637333333333333	1.1
806.3050639093642	0.18809999999999993	1.2048	1.1
806.0747461223415	0.18893333333333326	1.2225333333333337	1.1
806.0762869230869	0.17679999999999993	1.1964000000000004	1.1
806.0762869230869	0.17679999999999993	1.184266666666667	1.1
805.7789247961907	0.1812666666666666	1.2044000000000001	1.1
804.8203842203733	0.19189999999999993	1.2044000000000001	1.1
804.7254055382598	0.18239999999999992	1.1998666666666669	1.1
804.7254055382598	0.1857666666666666	1.1637333333333335	1.1
804.6280530046929	0.19583333333333325	1.1586666666666667	1.1
804.6325311934046	0.17783333333333326	1.1469333333333334	1.1
804.4368920112814	0.1788333333333333	1.0962666666666667	1.1
804.4368920112814	0.18179999999999993	1.082	1.1
804.2536157318744	0.17999999999999994	1.1306666666666667	1.1
804.2377916088195	0.1794666666666666	1.1465333333333334	1.1
804.1488107050728	0.18089999999999995	1.1604	1.1
804.1488107050728	0.18089999999999995	1.1604	1.1
804.0547278565698	0.18543333333333328	1.1604	1.1
803.4818550486127	0.1883666666666666	1.1990666666666667	1.1
803.4818550486127	0.1847333333333333	1.1601333333333337	1.1
803.4818550486127	0.1846666666666666	1.1600000000000001	1.1
802.7221886835288	0.1944666666666666	1.2100000000000002	1.1
802.722177436533	0.1965999999999999	1.3200000000000003	1.1
802.3406797117287	0.19749999999999993	1.3060000000000005	1.1
802.3406797117287	0.1787666666666666	1.1317333333333335	1.1
801.3938960816403	0.18179999999999996	1.1596	1.1
801.3806008500185	0.1804666666666666	1.1428	1.1
801.2844949449294	0.1804666666666666	1.16	1.1
801.2844949449294	0.17276666666666662	1.227066666666667	1.1
801.1916411702992	0.1861666666666666	1.227066666666667	1.1
801.1929720153194	0.18293333333333328	1.2977333333333334	1.1
801.1910417339747	0.1944333333333333	1.315066666666667	1.1
801.1910417339747	0.18536666666666662	1.1724	1.1
801.0999381735428	0.18139999999999992	1.0849333333333333	1.1
801.0989164043858	0.1781666666666666	1.0784	1.1
800.8148055655731	0.17339999999999994	1.0781333333333336	1.1
800.8148055655731	0.18343333333333325	1.1333333333333333	1.1
800.8110204817151	0.18033333333333326	1.1460000000000001	1.1
800.4298518284035	0.17749999999999996	1.1064	1.1
800.4318609339983	0.1807666666666666	1.1108	1.1
800.4318609339983	0.1807666666666666	1.1117333333333335	1.1
