wavelength(nm)	flourescence PMT(V)	ti_saph Power (V)	Gain (V)
800.3881158184118	0.18129999999999993	1.0813333333333333	1.1
800.519746046339	0.1861666666666666	1.1972000000000003	1.1
800.519746046339	0.17949999999999994	1.1114666666666668	1.1
800.8123019941804	0.17949999999999994	1.1605333333333336	1.1
800.904868186478	0.1903666666666666	1.151066666666667	1.1
800.904868186478	0.18183333333333326	1.151066666666667	1.1
800.904868186478	0.17859999999999993	1.0800000000000003	1.1
801.0941730660369	0.19073333333333328	1.0800000000000003	1.1
801.1929388700655	0.17886666666666662	1.0797333333333334	1.1
801.2799899290335	0.17243333333333327	1.141066666666667	1.1
801.2799899290335	0.19053333333333328	1.16	1.1
801.2840540962866	0.1936666666666666	1.230266666666667	1.1
801.3817519115906	0.18689999999999993	1.2125333333333337	1.1
801.3865828156117	0.1795666666666666	1.1340000000000001	1.1
801.3865828156117	0.17689999999999995	1.1004	1.1
801.4298462485034	0.17689999999999995	1.124	1.1
802.7187267553952	0.1838666666666666	1.1508000000000003	1.1
802.7190268439542	0.1826666666666666	1.1508000000000003	1.1
802.7190268439542	0.1885666666666666	1.1606666666666667	1.1
802.814314386946	0.1915999999999999	1.2362666666666668	1.1
802.6827900384351	0.18806666666666658	1.16	1.1
803.4865433602098	0.18123333333333325	1.1600000000000001	1.1
803.4865433602098	0.1891666666666666	1.1606666666666667	1.1
804.0576564298252	0.19646666666666662	1.2413333333333336	1.1
804.150000018522	0.18096666666666658	1.1514666666666669	1.1
804.3466241939977	0.1787666666666666	1.1453333333333333	1.1
804.3466241939977	0.1787666666666666	1.1598666666666668	1.1
804.3455610721287	0.1925666666666666	1.1596000000000002	1.1
804.4357396828179	0.18763333333333326	1.1596000000000002	1.1
804.4356588154752	0.18429999999999994	1.1094666666666668	1.1
804.4356588154752	0.17913333333333326	1.0781333333333336	1.1
804.630152883004	0.18349999999999994	1.0849333333333333	1.1
804.6300177329492	0.1706666666666666	1.1226666666666667	1.1
804.7201720202569	0.17773333333333327	1.1513333333333335	1.1
804.7201720202569	0.1890666666666666	1.1581333333333332	1.1
804.8292010510187	0.18513333333333326	1.1958666666666669	1.1
805.9814796242409	0.19033333333333327	1.1761333333333335	1.1
806.0762183232508	0.1811666666666666	1.1636000000000002	1.1
806.0762183232508	0.1811666666666666	1.2985333333333335	1.1
806.0736939137877	0.19673333333333326	1.3180000000000003	1.1
806.1657868969791	0.1971666666666666	1.3180000000000003	1.1
804.6489078014422	0.1885666666666666	1.2697333333333336	1.1
807.0321889118698	0.19193333333333326	1.2224000000000002	1.1
807.0321889118698	0.1908999999999999	1.195466666666667	1.1
807.418507103433	0.17703333333333326	1.1602666666666668	1.1
806.9818567248909	0.17786666666666662	1.16	1.1
807.7139388251932	0.19039999999999993	1.16	1.1
807.7139388251932	0.19413333333333327	1.16	1.1
807.7139388251932	0.18593333333333326	1.1601333333333335	1.1
807.8998839891549	0.19489999999999996	1.2673333333333334	1.1
807.903259921006	0.19489999999999996	1.2796000000000003	1.1
807.903259921006	0.19076666666666658	1.2489333333333335	1.1
807.9023177378705	0.1888666666666666	1.2489333333333335	1.1
807.9024997142479	0.19803333333333326	1.2412000000000005	1.1
808.1026473635446	0.18069999999999994	1.2265333333333335	1.1
808.1026473635446	0.1944333333333333	1.2366666666666668	1.1
808.1991619092892	0.19533333333333328	1.2237333333333336	1.1
808.2420282163357	0.18733333333333324	1.16	1.1
808.291440824418	0.19026666666666658	1.1548000000000003	1.1
808.291440824418	0.17979999999999993	1.1588000000000003	1.1
808.291440824418	0.1959666666666666	1.2545333333333335	1.1
809.4560163753141	0.18743333333333326	1.2444000000000002	1.1
809.456060845774	0.1940999999999999	1.1777333333333335	1.1
809.456060845774	0.1940999999999999	1.1605333333333334	1.1
809.456060845774	0.18649999999999994	1.1605333333333334	1.1
809.7478121509148	0.1814666666666666	1.1604	1.1
810.2328794141765	0.19373333333333329	1.1756000000000002	1.1
810.2328794141765	0.1902666666666666	1.1617333333333335	1.1
810.6241213135291	0.20383333333333326	1.335866666666667	1.1
810.6238200743617	0.20449999999999993	1.3618666666666668	1.1
811.1060399128392	0.20026666666666662	1.3149333333333335	1.1
811.1060399128392	0.19549999999999992	1.3665333333333334	1.1
811.1103986357784	0.20513333333333325	1.3957333333333335	1.1
811.404148674289	0.1942666666666666	1.332266666666667	1.1
811.4048577321726	0.19803333333333326	1.3968	1.1
811.4048577321726	0.19803333333333326	1.3928	1.1
811.4093480149635	0.1934666666666666	1.3928	1.1
811.5004487150333	0.1938666666666666	1.303466666666667	1.1
811.4963567006585	0.1869666666666666	1.1777333333333335	1.1
811.4963567006585	0.1865666666666666	1.16	1.1
811.5025037191921	0.18399999999999994	1.1600000000000001	1.1
812.0264720487794	0.17679999999999996	1.1601333333333335	1.1
812.8667261620649	0.18423333333333328	1.1617333333333333	1.1
812.8660880862765	0.19869999999999993	1.3210666666666668	1.1
812.8660880862765	0.1949666666666666	1.2409333333333337	1.1
813.1622935759743	0.1848666666666666	1.1929333333333334	1.1
812.9776154962882	0.1848666666666666	1.2202666666666668	1.1
813.166000433033	0.1777666666666666	1.2090666666666667	1.1
813.166000433033	0.18033333333333326	1.2090666666666667	1.1
813.166000433033	0.19693333333333327	1.318266666666667	1.1
814.047652533708	0.18983333333333327	1.261866666666667	1.1
814.5310703357294	0.18503333333333324	1.2454666666666667	1.1
814.5310703357294	0.19679999999999992	1.326266666666667	1.1
814.535378757414	0.1981666666666666	1.3837333333333333	1.1
814.7358978180672	0.20613333333333325	1.4004	1.1
814.7355267942113	0.19656666666666658	1.401066666666667	1.1
814.7355267942113	0.1904666666666666	1.4006666666666667	1.1
814.7380256712049	0.1942666666666666	1.3974666666666666	1.1
815.1287617547343	0.1942666666666666	1.1629333333333336	1.1
815.3218231881654	0.18183333333333326	1.2574666666666667	1.1
815.3218231881654	0.18693333333333328	1.2574666666666667	1.1
815.3218231881654	0.2020333333333333	1.3800000000000001	1.1
816.2116718814128	0.18623333333333325	1.3498666666666668	1.1
816.2085716410618	0.18136666666666662	1.272266666666667	1.1
816.2085716410618	0.17709999999999992	1.1601333333333337	1.1
816.2085716410618	0.18803333333333325	1.2064000000000001	1.1
816.9072291555763	0.18536666666666662	1.316666666666667	1.1
817.4964611095784	0.19169999999999993	1.2684000000000004	1.1
817.4964611095784	0.18299999999999994	1.2676000000000003	1.1
817.4956541058731	0.1731666666666666	1.2600000000000005	1.1
817.4019889705429	0.1731666666666666	1.241866666666667	1.1
817.4927797465971	0.18253333333333324	1.1804000000000001	1.1
817.4927797465971	0.17689999999999992	1.1804000000000001	1.1
818.1929796095226	0.17639999999999992	1.2125333333333337	1.1
818.289802364225	0.17906666666666662	1.3286666666666669	1.1
818.2911018382993	0.1841666666666666	1.3188000000000004	1.1
818.2911018382993	0.18383333333333327	1.1901333333333335	1.1
818.2865004664785	0.17313333333333328	1.1617333333333333	1.1
818.5922246555139	0.16883333333333328	1.1606666666666667	1.1
818.5948618503495	0.16956666666666662	1.16	1.1
818.5948618503495	0.17013333333333325	1.16	1.1
818.5942726084937	0.17963333333333326	1.2378666666666667	1.1
818.686163943336	0.17963333333333326	1.3698666666666668	1.1
819.7892828939307	0.1762333333333333	1.3698666666666668	1.1
819.7893336619189	0.18846666666666662	1.350666666666667	1.1
819.7893336619189	0.16869999999999996	1.3937333333333333	1.1
819.7893388585206	0.18446666666666658	1.374266666666667	1.1
820.4925728259882	0.1769666666666666	1.334666666666667	1.1
820.7796912494573	0.18156666666666663	1.3696000000000002	1.1
820.7796912494573	0.17353333333333326	1.3269333333333337	1.1
820.9878755428541	0.17449999999999993	1.2996000000000003	1.1
820.9899393933549	0.17169999999999994	1.3304000000000002	1.1
820.9899393933549	0.18409999999999993	1.3834666666666668	1.1
820.9899393933549	0.18409999999999993	1.3604000000000003	1.1
821.5840794310301	0.1831333333333333	1.3824	1.1
821.7916684946866	0.17243333333333327	1.3824	1.1
821.79478805502	0.17643333333333325	1.4001333333333335	1.1
821.79478805502	0.16959999999999995	1.3997333333333335	1.1
821.8917948559947	0.1817666666666666	1.3996	1.1
821.9375259687287	0.17689999999999992	1.3996	1.1
822.1856355928134	0.16183333333333327	1.3633333333333335	1.1
822.1856355928134	0.17383333333333326	1.3204000000000005	1.1
822.1975654340624	0.1650666666666666	1.319866666666667	1.1
822.482476459346	0.1722666666666666	1.3201333333333336	1.1
823.5026108756953	0.17086666666666658	1.3848000000000003	1.1
823.5026108756953	0.17086666666666658	1.478	1.1
823.4976513076466	0.1747333333333333	1.4790666666666665	1.1
823.4919770688439	0.17749999999999994	1.4790666666666665	1.1
824.0924482268192	0.16493333333333327	1.4685333333333332	1.1
824.0924482268192	0.18219999999999995	1.398	1.1
824.0911113933427	0.16409999999999994	1.3336000000000003	1.1
824.4021444214434	0.16783333333333328	1.3800000000000001	1.1
824.3977386153974	0.16253333333333328	1.3220000000000003	1.1
824.3977386153974	0.15986666666666663	1.3073333333333335	1.1
824.3977386153974	0.16959999999999995	1.2917333333333336	1.1
824.7091142722935	0.1676666666666666	1.3629333333333338	1.1
824.3416431498869	0.1727666666666666	1.408	1.1
825.3115617411843	0.1727666666666666	1.3518666666666668	1.1
825.3115617411843	0.16576666666666665	1.3300000000000003	1.1
825.3115617411843	0.1703666666666666	1.3938666666666668	1.1
825.4089851088427	0.16166666666666663	1.3938666666666668	1.1
825.7146400329453	0.1675666666666666	1.4426666666666665	1.1
825.7146400329453	0.17403333333333326	1.4312	1.1
825.7148121882627	0.16449999999999992	1.3761333333333334	1.1
825.7158451942133	0.1656666666666666	1.3201333333333336	1.1
826.1192525499109	0.15813333333333326	1.2925333333333338	1.1
826.1192525499109	0.15816666666666662	1.4498666666666666	1.1
826.1192525499109	0.1567666666666666	1.4281333333333333	1.1
826.1192525499109	0.1611666666666666	1.2461333333333335	1.1
826.8302852179626	0.16109999999999994	1.3778666666666668	1.1
826.8302852179626	0.16109999999999994	1.4064	1.1
827.2381515063229	0.16883333333333325	1.3718666666666668	1.1
827.3350999762772	0.1558333333333333	1.3718666666666668	1.1
828.0449433217833	0.17153333333333326	1.3197333333333336	1.1
828.0449433217833	0.1594333333333333	1.4639999999999997	1.1
828.0439154060472	0.16889999999999997	1.4801333333333333	1.1
828.6570632274215	0.15946666666666662	1.4834666666666665	1.1
828.6581596159407	0.15779999999999997	1.4469333333333334	1.1
828.6581596159407	0.15573333333333328	1.3482666666666667	1.1
828.6581596159407	0.15816666666666662	1.3460000000000003	1.1
828.8577876127686	0.16059999999999994	1.3813333333333337	1.1
829.3745460862198	0.1560333333333333	1.3628	1.1
829.3745460862198	0.1560333333333333	1.3324	1.1
829.3781885155876	0.1494666666666666	1.3324	1.1
829.4772736591647	0.1727666666666666	1.4161333333333335	1.1
829.5750746735337	0.1549666666666666	1.3572000000000002	1.1
829.5750746735337	0.1651666666666666	1.3289333333333335	1.1
829.8902812654991	0.17173333333333327	1.4297333333333333	1.1
830.0879204511479	0.1613666666666666	1.4246666666666667	1.1
830.3944216867586	0.15853333333333328	1.3317333333333334	1.1
830.4938086451348	0.16513333333333327	1.3821333333333337	1.1
830.4938086451348	0.16799999999999995	1.4090666666666667	1.1
831.2162859382731	0.16063333333333327	1.3384000000000003	1.1
831.1190134106492	0.16063333333333327	1.3881333333333334	1.1
831.2175322955516	0.15729999999999994	1.4792	1.1
831.2175322955516	0.16643333333333327	1.4792	1.1
831.5328711451797	0.1601666666666666	1.4946666666666666	1.1
831.5328711451797	0.17446666666666663	1.4430666666666667	1.1
832.1367527419195	0.14916666666666661	1.336266666666667	1.1
832.1367527419195	0.16699999999999995	1.4189333333333334	1.1
832.5458107672719	0.16693333333333327	1.3697333333333335	1.1
832.5458107672719	0.1705333333333333	1.3457333333333334	1.1
832.6483405341986	0.1644666666666666	1.4631999999999998	1.1
832.6483405341986	0.1698333333333333	1.3665333333333334	1.1
832.9651342277481	0.17233333333333328	1.3710666666666669	1.1
832.9643173343086	0.17233333333333328	1.3998666666666668	1.1
832.9643173343086	0.17586666666666662	1.3920000000000001	1.1
832.9643173343086	0.17703333333333326	1.3920000000000001	1.1
833.3768013250352	0.18173333333333327	1.334	1.1
833.378022575781	0.18143333333333325	1.3798666666666668	1.1
833.3780506030889	0.18639999999999993	1.4706666666666663	1.1
833.3780506030889	0.2019999999999999	1.3983999999999999	1.1
833.8962240772429	0.1973999999999999	1.1605333333333336	1.1
833.9892632522866	0.1988999999999999	1.1633333333333336	1.1
834.3053831196083	0.22433333333333327	1.0813333333333335	1.1
834.3053831196083	0.22309999999999994	0.9901333333333332	1.1
834.7217831975499	0.1754666666666666	0.30106666666666687	1.1
834.8200804038917	0.1754666666666666	0.18213333333333348	1.1
835.2338738206562	0.15446666666666664	0.07960000000000007	1.1
835.2338738206562	0.14139999999999997	0.07960000000000007	1.1
835.4447013349292	0.12516666666666662	0.020000000000000018	1.1
833.6502331926935	0.11743333333333329	-0.020000000000000018	1.1
835.648336927891	0.10463333333333329	-0.030266666666666695	1.1
836.2624882418199	0.10353333333333328	-0.030666666666666693	1.1
836.2624882418199	0.11216666666666664	-0.03320000000000003	1.1
836.2725830819047	0.10843333333333328	-0.034266666666666695	1.1
836.590324720326	0.10776666666666664	-0.03400000000000003	1.1
836.7929660289464	0.10673333333333329	-0.0338666666666667	1.1
836.7929660289464	0.10279999999999996	-0.0334666666666667	1.1
836.785339501968	0.10279999999999996	-0.03400000000000003	1.1
836.7943495332879	0.1122333333333333	-0.03400000000000003	1.1
837.0979284083913	0.10856666666666664	-0.034266666666666695	1.1
837.0979284083913	0.10563333333333329	-0.03360000000000003	1.1
837.3186740420691	0.11009999999999996	-0.035466666666666695	1.1
837.4122819723659	0.10909999999999996	-0.03200000000000003	1.1
837.7291711178823	0.10366666666666663	-0.03280000000000003	1.1
837.7291711178823	0.10546666666666663	-0.03173333333333336	1.1
837.7291711178823	0.11169999999999995	-0.03413333333333336	1.1
838.1494806820431	0.11156666666666662	-0.03533333333333336	1.1
838.562636071447	0.11409999999999997	-0.034266666666666695	1.1
838.562636071447	0.11409999999999997	-0.031600000000000024	1.1
839.0823188739907	0.10856666666666662	-0.03320000000000003	1.1
838.9840241036637	0.10219999999999996	-0.03320000000000003	1.1
839.0838672478662	0.10726666666666662	-0.03440000000000003	1.1
839.0838672478662	0.10586666666666662	-0.03440000000000003	1.1
839.4017679811845	0.10536666666666662	-0.03360000000000003	1.1
839.5017651550247	0.10329999999999996	-0.03240000000000003	1.1
839.9278577836313	0.09796666666666662	-0.03146666666666669	1.1
839.9278577836313	0.10859999999999995	-0.032266666666666693	1.1
840.1247817255656	0.10826666666666661	-0.03213333333333336	1.1
840.2990601029038	0.1061333333333333	-0.03266666666666669	1.1
840.2990601029038	0.10583333333333328	-0.03293333333333336	1.1
840.2990601029038	0.10583333333333328	-0.03266666666666669	1.1
840.8692479902603	0.10406666666666663	-0.03453333333333337	1.1
840.9647951061283	0.10663333333333329	-0.03453333333333337	1.1
840.9661224429328	0.10309999999999997	-0.029866666666666694	1.1
840.9661224429328	0.10769999999999996	-0.034933333333333365	1.1
841.2906547829974	0.09953333333333328	-0.03320000000000003	1.1
841.4969184273889	0.10613333333333327	-0.034266666666666695	1.1
841.6023681846827	0.10533333333333328	-0.03200000000000003	1.1
841.7083259383879	0.11123333333333328	-0.03440000000000003	1.1
841.7083259383879	0.10679999999999995	-0.0338666666666667	1.1
842.0265439838074	0.11546666666666662	-0.0374666666666667	1.1
842.233314871723	0.10746666666666663	-0.03373333333333336	1.1
842.6547816811014	0.10746666666666663	-0.0334666666666667	1.1
842.6547816811014	0.10453333333333328	-0.03533333333333336	1.1
843.1216339091827	0.11566666666666663	-0.03533333333333336	1.1
842.9718281217283	0.10296666666666662	-0.03440000000000003	1.1
842.9718281217283	0.10556666666666663	-0.03080000000000003	1.1
842.9718281217283	0.10273333333333329	-0.03146666666666669	1.1
843.925280373477	0.10653333333333329	-0.03453333333333337	1.1
844.347348975458	0.10183333333333329	-0.03453333333333337	1.1
844.3468230977539	0.11196666666666663	-0.03373333333333336	1.1
844.3468230977539	0.1094333333333333	-0.03360000000000003	1.1
844.5533181438284	0.1124333333333333	-0.03266666666666669	1.1
844.6664513089125	0.10713333333333329	-0.03200000000000003	1.1
844.6664184500662	0.10713333333333329	-0.0350666666666667	1.1
844.6664184500662	0.10829999999999997	-0.033066666666666696	1.1
844.9800477365793	0.10439999999999995	-0.033066666666666696	1.1
844.979857061977	0.11286666666666662	-0.03373333333333336	1.1
843.0791783128906	0.10393333333333328	-0.034800000000000025	1.1
842.8631778808422	0.10903333333333332	-0.034800000000000025	1.1
842.3316537681784	0.10539999999999995	-0.033066666666666696	1.1
842.3316537681784	0.11056666666666662	-0.03613333333333337	1.1
842.1735857744611	0.10873333333333328	-0.0334666666666667	1.1
841.7039811070663	0.10459999999999994	-0.032533333333333365	1.1
841.7053737631782	0.10826666666666661	-0.033066666666666696	1.1
841.7053737631782	0.10703333333333329	-0.032533333333333365	1.1
841.7053737631782	0.10499999999999995	-0.03293333333333336	1.1
841.3893877009577	0.10303333333333328	-0.031600000000000024	1.1
841.2810886270596	0.10649999999999996	-0.033066666666666696	1.1
841.2810886270596	0.10563333333333329	-0.03106666666666669	1.1
840.9692721471905	0.10563333333333329	-0.03213333333333336	1.1
840.870588439613	0.11199999999999993	-0.03213333333333336	1.1
840.9735903040436	0.11099999999999997	-0.03293333333333336	1.1
840.9735903040436	0.10056666666666662	-0.03240000000000003	1.1
840.9735903040436	0.10476666666666663	-0.03280000000000003	1.1
840.444151400804	0.10399999999999995	-0.031600000000000024	1.1
840.4404052586077	0.10886666666666661	-0.032533333333333365	1.1
840.4404052586077	0.11116666666666662	-0.0346666666666667	1.1
840.3421376871997	0.10556666666666663	-0.0338666666666667	1.1
839.5069339379296	0.09986666666666662	-0.03106666666666669	1.1
839.5059451096809	0.10493333333333328	-0.03293333333333336	1.1
839.5059451096809	0.10493333333333328	-0.03146666666666669	1.1
839.2892905022381	0.10569999999999996	-0.03293333333333336	1.1
839.0870556607105	0.10626666666666662	-0.03293333333333336	1.1
839.0869822463039	0.10183333333333329	-0.03093333333333336	1.1
838.5559538882515	0.10133333333333328	-0.03013333333333336	1.1
838.5559538882515	0.10006666666666662	-0.02973333333333336	1.1
838.3481171761961	0.10579999999999996	-0.031600000000000024	1.1
838.144946586534	0.10523333333333329	-0.03173333333333336	1.1
837.8328505936731	0.1045333333333333	-0.02973333333333336	1.1
837.8328505936731	0.10319999999999996	-0.02933333333333336	1.1
837.6271829058221	0.1092333333333333	-0.032533333333333365	1.1
837.5185232508545	0.10676666666666662	-0.030666666666666693	1.1
837.0945926483577	0.10676666666666662	-0.030666666666666693	1.1
837.0945926483577	0.10696666666666663	-0.03320000000000003	1.1
837.107867326189	0.10956666666666663	-0.03320000000000003	1.1
836.7913725038507	0.09989999999999996	-0.03280000000000003	1.1
836.6892467675342	0.11226666666666661	-0.029866666666666694	1.1
836.6892467675342	0.10696666666666663	-0.0334666666666667	1.1
836.5814107605565	0.1160333333333333	-0.03093333333333336	1.1
836.1663497701265	0.10849999999999994	-0.03440000000000003	1.1
836.2639003694508	0.10916666666666662	-0.03333333333333336	1.1
836.2639003694508	0.1073333333333333	-0.03240000000000003	1.1
835.7449399677995	0.10813333333333328	-0.033066666666666696	1.1
836.0640312705879	0.11116666666666662	-0.03293333333333336	1.1
835.4431842305319	0.11116666666666662	-0.02813333333333336	1.1
835.4431842305319	0.10959999999999993	-0.02813333333333336	1.1
835.3373392440432	0.11273333333333328	-0.014533333333333346	1.1
835.0343303499543	0.13149999999999995	0.024133333333333354	1.1
834.8171136822247	0.1352333333333333	0.0865333333333334	1.1
834.8171136822247	0.15679999999999994	0.17333333333333348	1.1
834.7232191845967	0.17733333333333326	0.38520000000000015	1.1
834.3054824409463	0.18253333333333324	0.49440000000000006	1.1
834.3026220422611	0.2383666666666666	1.0501333333333334	1.1
834.3026220422611	0.20929999999999993	1.1577333333333335	1.1
833.8875026397711	0.19886666666666658	1.1569333333333334	1.1
833.8874661031193	0.19886666666666658	1.1580000000000001	1.1
833.3789592534209	0.20039999999999994	1.3868	1.1
833.3789592534209	0.1871666666666666	1.3868	1.1
833.3785075293679	0.18199999999999994	1.4737333333333331	1.1
832.9597736309048	0.1921666666666666	1.48	1.1
832.9597736309048	0.17549999999999996	1.4161333333333335	1.1
832.9597736309048	0.17119999999999996	1.4	1.1
832.9639814112164	0.1705333333333333	1.3961333333333334	1.1
832.6510020790655	0.16826666666666662	1.4778666666666664	1.1
832.5528651376118	0.17539999999999994	1.48	1.1
832.2347087994692	0.17173333333333327	1.4455999999999998	1.1
832.2347087994692	0.1683666666666666	1.4449333333333334	1.1
832.2347087994692	0.15693333333333329	1.3489333333333335	1.1
831.9349964337647	0.15693333333333329	1.2682666666666669	1.1
831.7252921812507	0.15809999999999994	1.2682666666666669	1.1
831.7252921812507	0.1534666666666666	1.3024000000000004	1.1
831.217094020888	0.16509999999999997	1.3728	1.1
831.2154465772672	0.17279999999999993	1.4841333333333333	1.1
830.9032650286837	0.15833333333333327	1.48	1.1
830.9032650286837	0.1615666666666666	1.346666666666667	1.1
830.3981170379678	0.1588666666666666	1.3474666666666668	1.1
830.3989418946513	0.16999999999999993	1.48	1.1
829.8849374881604	0.1592666666666666	1.4802666666666666	1.1
829.8849374881604	0.16053333333333328	1.3824	1.1
829.8801135427235	0.16053333333333328	1.4796	1.1
829.8912112300477	0.1668666666666666	1.3853333333333333	1.1
829.3793381367399	0.16423333333333326	1.3853333333333333	1.1
829.3793381367399	0.15999999999999995	1.4262666666666666	1.1
829.4805836666092	0.16303333333333328	1.4385333333333332	1.1
829.2686568180475	0.16749999999999993	1.4444	1.1
829.2686568180475	0.16349999999999995	1.3204000000000005	1.1
829.2686568180475	0.16879999999999995	1.4344	1.1
828.6572238480433	0.16303333333333328	1.4156	1.1
828.6571669076428	0.16069999999999993	1.3789333333333336	1.1
828.6571669076428	0.15673333333333328	1.3736000000000002	1.1
828.6571669076428	0.16463333333333327	1.4697333333333331	1.1
828.0427795449802	0.16463333333333327	1.4797333333333331	1.1
827.8401067037943	0.16249999999999992	1.4247999999999998	1.1
827.8401067037943	0.1623333333333333	1.4247999999999998	1.1
827.8401067037943	0.1629666666666666	1.4743999999999997	1.1
827.334925905535	0.17039999999999994	1.4725333333333332	1.1
827.2417204289414	0.1649666666666666	1.3821333333333334	1.1
827.2417204289414	0.16493333333333327	1.3345333333333336	1.1
827.2417204289414	0.1662666666666666	1.295466666666667	1.1
826.6261204978292	0.1589333333333333	1.2661333333333333	1.1
826.0246257204352	0.16549999999999995	1.4132	1.1
825.713741773037	0.17309999999999992	1.4415999999999998	1.1
825.6182866489363	0.16739999999999994	1.3200000000000003	1.1
825.6182866489363	0.16739999999999994	1.3280000000000003	1.1
825.6182866489363	0.16453333333333328	1.4454666666666667	1.1
825.6182866489363	0.16639999999999996	1.4454666666666667	1.1
825.2110749581356	0.16383333333333328	1.4158666666666666	1.1
825.2110749581356	0.16469999999999993	1.4226666666666665	1.1
825.3134127298955	0.16253333333333328	1.3237333333333337	1.1
825.2055143622139	0.15953333333333328	1.3189333333333337	1.1
824.9111882848123	0.1674333333333333	1.3169333333333337	1.1
824.9111882848123	0.1787666666666666	1.4366666666666668	1.1
824.3080032832694	0.1659666666666666	1.3893333333333335	1.1
824.3039292960387	0.1675666666666666	1.334666666666667	1.1
824.0930361795974	0.16919999999999993	1.3568000000000002	1.1
824.0930361795974	0.16919999999999993	1.3858666666666668	1.1
823.8993160306306	0.1725333333333333	1.3785333333333336	1.1
823.4971961814773	0.17079999999999992	1.3785333333333336	1.1
823.4971961814773	0.1780666666666666	1.321866666666667	1.1
823.4971961814773	0.17583333333333329	1.3976	1.1
823.4954622745447	0.16919999999999993	1.4737333333333333	1.1
822.4856114548078	0.17653333333333326	1.476933333333333	1.1
822.2882064372387	0.18093333333333328	1.3621333333333334	1.1
822.2882064372387	0.1722666666666666	1.2224000000000004	1.1
822.1842124421657	0.1736333333333333	1.2453333333333334	1.1
822.1842124421657	0.18079999999999993	1.326666666666667	1.1
821.8921914727663	0.1732666666666666	1.4002666666666668	1.1
821.8921914727663	0.1732666666666666	1.3978666666666668	1.1
821.8868419320484	0.1768333333333333	1.3862666666666668	1.1
821.8868419320484	0.17343333333333327	1.3862666666666668	1.1
821.7925459550921	0.1707333333333333	1.3829333333333336	1.1
821.0877724875867	0.1741666666666666	1.3944	1.1
821.0877724875867	0.17749999999999996	1.3830666666666669	1.1
820.7808680238554	0.17973333333333327	1.3998666666666668	1.1
820.7807681088092	0.1829999999999999	1.3865333333333334	1.1
820.587673266517	0.17189999999999994	1.3198666666666667	1.1
820.587673266517	0.17493333333333325	1.3373333333333337	1.1
820.4443076503628	0.1776999999999999	1.3816000000000002	1.1
819.788349744188	0.17796666666666663	1.374266666666667	1.1
819.7881470808438	0.17796666666666663	1.3864000000000003	1.1
819.7881470808438	0.18219999999999995	1.3578666666666668	1.1
818.5944746166015	0.17439999999999992	1.3578666666666668	1.1
818.5935844615251	0.18056666666666657	1.3201333333333336	1.1
818.5903392779744	0.18023333333333327	1.237466666666667	1.1
818.5903392779744	0.17573333333333327	1.1604	1.1
818.5903392779744	0.18459999999999993	1.1669333333333334	1.1
818.2904508146742	0.17433333333333328	1.2382666666666668	1.1
818.2931578992577	0.18136666666666662	1.2006666666666668	1.1
818.2931578992577	0.18419999999999992	1.2400000000000002	1.1
818.195532207656	0.18749999999999994	1.3196000000000003	1.1
817.7947249809594	0.1905666666666666	1.3034666666666672	1.1
817.4922947714433	0.1905666666666666	1.1678666666666666	1.1
817.4922947714433	0.1719666666666666	1.2396000000000003	1.1
817.4936127850816	0.17873333333333324	1.2396000000000003	1.1
817.0027377021529	0.1726666666666666	1.251466666666667	1.1
817.0027377021529	0.18549999999999991	1.3178666666666672	1.1
817.0027377021529	0.18569999999999992	1.3152000000000001	1.1
816.2159206114635	0.18589999999999993	1.2893333333333337	1.1
816.2085247369735	0.18373333333333328	1.16	1.1
815.3253530024413	0.19429999999999992	1.267066666666667	1.1
815.3253530024413	0.19273333333333326	1.3844	1.1
815.3208378274139	0.19579999999999995	1.382266666666667	1.1
815.3218304923	0.1855666666666666	1.365866666666667	1.1
815.1288616303158	0.1855666666666666	1.2625333333333335	1.1
815.1288616303158	0.18689999999999993	1.2625333333333335	1.1
814.7374907106549	0.19293333333333326	1.3517333333333337	1.1
814.7402360849518	0.19993333333333324	1.4018666666666666	1.1
814.7373989679222	0.19129999999999991	1.4014666666666669	1.1
814.7373989679222	0.19556666666666658	1.4045333333333334	1.1
814.7363731908011	0.19129999999999991	1.4028	1.1
814.5307346743766	0.19449999999999992	1.39	1.1
814.5307346743766	0.19059999999999994	1.313466666666667	1.1
814.5307346743766	0.1807666666666666	1.2400000000000002	1.1
814.0478752187614	0.1831333333333333	1.2406666666666668	1.1
813.1671445461778	0.20193333333333324	1.3709333333333336	1.1
813.1660136417482	0.20193333333333324	1.3794666666666668	1.1
812.8657484568538	0.19449999999999992	1.3794666666666668	1.1
812.8657484568538	0.19893333333333327	1.345866666666667	1.1
812.8614664108998	0.1881666666666666	1.319066666666667	1.1
811.892287966016	0.18999999999999992	1.3525333333333336	1.1
811.8922539205041	0.19209999999999994	1.3492000000000004	1.1
811.8922539205041	0.20256666666666662	1.2812000000000003	1.1
811.5034317954533	0.17879999999999993	1.16	1.1
811.5034512261612	0.1865666666666666	1.1590666666666667	1.1
811.4983799810221	0.1902999999999999	1.1838666666666668	1.1
811.4983799810221	0.18319999999999992	1.2725333333333337	1.1
811.4993895758229	0.18319999999999992	1.3185333333333336	1.1
811.4087235655381	0.19799999999999993	1.3189333333333335	1.1
811.3079322944762	0.1975666666666666	1.3189333333333335	1.1
811.3079322944762	0.18603333333333327	1.3144000000000005	1.1
811.3079322944762	0.19989999999999994	1.3496000000000004	1.1
810.7175332863841	0.19403333333333325	1.3084000000000002	1.1
810.717509394481	0.1940666666666666	1.1613333333333336	1.1
810.717509394481	0.18769999999999995	1.1689333333333336	1.1
810.7184852442377	0.19099999999999995	1.2038666666666669	1.1
809.7478332081071	0.19179999999999992	1.16	1.1
809.4530151428509	0.1893666666666666	1.1636000000000002	1.1
809.4530151428509	0.18569999999999992	1.1682666666666668	1.1
809.4560501837284	0.18569999999999992	1.1601333333333337	1.1
809.4538227178333	0.18786666666666663	1.1733333333333336	1.1
809.4518123518043	0.1772666666666666	1.1733333333333336	1.1
809.4518123518043	0.18989999999999996	1.2066666666666668	1.1
808.2873248102484	0.19053333333333325	1.2357333333333338	1.1
808.2892125126377	0.19399999999999995	1.2484000000000004	1.1
808.1936926569908	0.1829999999999999	1.1602666666666668	1.1
808.1936926569908	0.18556666666666657	1.16	1.1
808.0101572044746	0.1852999999999999	1.1674666666666667	1.1
808.0102457276606	0.19249999999999992	1.217066666666667	1.1
807.8970451972117	0.1806666666666666	1.1628	1.1
807.8970451972117	0.1865666666666666	1.2373333333333334	1.1
807.8046650454601	0.1865666666666666	1.303466666666667	1.1
807.7119416070236	0.19579999999999995	1.303466666666667	1.1
806.310657725821	0.20309999999999992	1.261466666666667	1.1
806.310657725821	0.1893666666666666	1.2462666666666669	1.1
807.4175787248248	0.20286666666666658	1.1608	1.1
807.1242750239363	0.1886666666666666	1.16	1.1
806.9369619227947	0.18549999999999991	1.2256000000000002	1.1
806.9369619227947	0.19223333333333326	1.16	1.1
806.2570482975877	0.1999999999999999	1.2428000000000001	1.1
806.1178458982923	0.19859999999999992	1.2325333333333337	1.1
805.9834372161909	0.18293333333333328	1.2148	1.1
805.9834372161909	0.18293333333333328	1.2457333333333336	1.1
805.9834372161909	0.18536666666666662	1.3092000000000004	1.1
804.8205042942525	0.1907666666666666	1.3092000000000004	1.1
804.7298796996323	0.19033333333333327	1.2013333333333336	1.1
804.7298796996323	0.20709999999999995	1.1882666666666668	1.1
804.6247246089983	0.18849999999999995	1.1602666666666668	1.1
804.4388354087519	0.18423333333333328	1.1482666666666668	1.1
804.34759608823	0.17729999999999996	1.1110666666666669	1.1
804.3458723252036	0.18649999999999994	1.0922666666666667	1.1
804.3458723252036	0.1833666666666666	1.0977333333333334	1.1
804.2525225471122	0.1885666666666666	1.1344	1.1
804.2376188179283	0.1757666666666666	1.1598666666666668	1.1
803.9654987668864	0.1757666666666666	1.1640000000000001	1.1
803.9654987668864	0.18223333333333327	1.222	1.1
803.483969643748	0.1926999999999999	1.222	1.1
803.483969643748	0.1802666666666666	1.2077333333333335	1.1
802.8135408126589	0.18093333333333325	1.1598666666666668	1.1
802.8135408126589	0.18479999999999994	1.1600000000000001	1.1
802.7184401624876	0.1777666666666666	1.16	1.1
802.3368944424503	0.20436666666666659	1.2549333333333337	1.1
801.3806165075464	0.17863333333333328	1.1581333333333335	1.1
801.3806165075464	0.18463333333333326	1.1604	1.1
801.2849280115665	0.18359999999999996	1.1561333333333335	1.1
801.2822796426879	0.19263333333333327	1.1582666666666668	1.1
801.1935075036836	0.19263333333333327	1.2208000000000003	1.1
801.1935075036836	0.19363333333333324	1.2965333333333335	1.1
801.1903545546834	0.19263333333333327	1.2965333333333335	1.1
801.1898011100143	0.19023333333333325	1.2496000000000003	1.1
801.1885525482118	0.19423333333333329	1.1593333333333335	1.1
801.1885525482118	0.17383333333333326	1.0845333333333333	1.1
801.0961404838052	0.17663333333333328	1.0793333333333335	1.1
800.8108153353139	0.18076666666666658	1.0804	1.1
800.9088757304067	0.18293333333333325	1.132266666666667	1.1
800.9088757304067	0.18163333333333326	1.1481333333333335	1.1
800.3387220273863	0.18073333333333327	1.159866666666667	1.1
800.4260526053424	0.1760666666666666	1.1310666666666669	1.1
