wavelength(nm)	flourescence PMT(V)	ti_saph Power (V)	Gain (V)
800.4284562691925	0.19169999999999993	1.1266666666666667	1.1
800.6233989512261	0.1901666666666666	1.1496	1.1
800.812293689375	0.19223333333333326	1.1818666666666668	1.1
801.0979811932302	0.18949999999999995	1.1337333333333333	1.1
801.0979811932302	0.17763333333333325	1.08	1.1
801.1007999939231	0.18316666666666662	1.08	1.1
801.0975550908944	0.17163333333333328	1.0800000000000003	1.1
801.1885939906758	0.18013333333333326	1.0800000000000003	1.1
801.1885939906758	0.18013333333333326	1.1248000000000002	1.1
801.2827508009699	0.17263333333333325	1.1950666666666667	1.1
801.389465191203	0.1798666666666666	1.1950666666666667	1.1
801.3891102013761	0.19209999999999994	1.2122666666666668	1.1
801.3891102013761	0.18533333333333327	1.1600000000000001	1.1
802.3394684081065	0.18119999999999994	1.1601333333333335	1.1
802.3394684081065	0.1887666666666666	1.1524	1.1
802.7215193353188	0.19369999999999993	1.16	1.1
802.7214248393564	0.19233333333333325	1.2444000000000002	1.1
802.7214248393564	0.1878666666666666	1.2377333333333336	1.1
802.8117515650111	0.19219999999999995	1.16	1.1
803.7712899917545	0.17423333333333327	1.16	1.1
804.0577757958877	0.20233333333333328	1.2389333333333334	1.1
804.0577757958877	0.20233333333333328	1.2304	1.1
804.0139533876772	0.17909999999999995	1.1749333333333334	1.1
804.3449586828616	0.18389999999999995	1.1749333333333334	1.1
804.3458038061148	0.18829999999999994	1.1597333333333335	1.1
804.3458038061148	0.18546666666666659	1.1561333333333335	1.1
804.3458038061148	0.17733333333333326	1.1192	1.1
804.4383529003658	0.18139999999999992	1.0577333333333334	1.1
804.6281472644963	0.1724666666666666	1.0557333333333334	1.1
804.6281472644963	0.1781666666666666	1.1402666666666668	1.1
804.6281603436854	0.1854666666666666	1.1522666666666668	1.1
804.6281679505079	0.1847666666666666	1.1594666666666669	1.1
804.8275337306521	0.18076666666666658	1.214666666666667	1.1
805.8337870874795	0.18076666666666658	1.2317333333333336	1.1
805.8337870874795	0.1915666666666666	1.2192	1.1
805.7829002376343	0.19133333333333324	1.2192	1.1
806.0766835142894	0.20233333333333325	1.2533333333333336	1.1
806.07677672707	0.19703333333333325	1.2989333333333335	1.1
806.07677672707	0.18809999999999993	1.2980000000000003	1.1
806.0279265932885	0.1879666666666666	1.2596000000000003	1.1
806.9389618443072	0.19653333333333325	1.1974666666666667	1.1
807.166382170038	0.1843666666666666	1.16	1.1
807.166382170038	0.18909999999999993	1.16	1.1
807.166382170038	0.1839999999999999	1.16	1.1
807.7142501103896	0.1808666666666666	1.1598666666666668	1.1
807.7126426908633	0.1808666666666666	1.1414666666666669	1.1
807.7141991616236	0.1883666666666666	1.1557333333333335	1.1
807.7141991616236	0.1884666666666666	1.1557333333333335	1.1
807.7141991616236	0.18229999999999993	1.2502666666666669	1.1
807.7672943541297	0.18979999999999994	1.305466666666667	1.1
808.0037198309	0.19193333333333323	1.2584000000000004	1.1
808.0037198309	0.18543333333333328	1.2360000000000002	1.1
808.104107460193	0.19099999999999992	1.195866666666667	1.1
808.104107460193	0.19939999999999994	1.225466666666667	1.1
808.1933031313056	0.18879999999999994	1.1613333333333336	1.1
808.1933031313056	0.19003333333333325	1.1594666666666669	1.1
809.158172981172	0.1902999999999999	1.1608000000000003	1.1
809.158172981172	0.1902999999999999	1.2585333333333335	1.1
809.4571411498612	0.19833333333333325	1.2356000000000003	1.1
809.4571411498612	0.1877999999999999	1.2356000000000003	1.1
809.4562132323337	0.19296666666666656	1.1793333333333336	1.1
809.4561536793638	0.18566666666666662	1.1805333333333334	1.1
810.2302110283234	0.18339999999999995	1.1608000000000003	1.1
810.6242447573992	0.18559999999999993	1.16	1.1
810.6242447573992	0.1908666666666666	1.1653333333333333	1.1
810.6240085643333	0.19396666666666662	1.3049333333333335	1.1
810.7210876575831	0.1932666666666666	1.2669333333333335	1.1
811.1105077947923	0.20069999999999993	1.2901333333333336	1.1
811.1105077947923	0.1910666666666666	1.3217333333333336	1.1
811.3027597082983	0.1910666666666666	1.2969333333333335	1.1
811.4034251632187	0.19633333333333325	1.1626666666666667	1.1
811.4056362567696	0.1845666666666666	1.1626666666666667	1.1
811.4056362567696	0.19059999999999994	1.2953333333333337	1.1
811.4033806147121	0.2013999999999999	1.3157333333333339	1.1
811.5007257376889	0.1849666666666666	1.1712000000000002	1.1
811.4994659294464	0.1805666666666666	1.16	1.1
811.7957427979867	0.1846666666666666	1.16	1.1
811.7957427979867	0.18019999999999997	1.1600000000000001	1.1
811.7946509417638	0.1861666666666666	1.16	1.1
812.6731382800634	0.20213333333333328	1.3293333333333335	1.1
810.5281170337815	0.20449999999999993	1.3357333333333337	1.1
810.5281170337815	0.20449999999999993	1.2333333333333336	1.1
813.1606741111834	0.1894666666666666	1.2600000000000005	1.1
813.0685683374235	0.18706666666666658	1.2600000000000005	1.1
814.0458817168301	0.1918666666666666	1.3201333333333336	1.1
814.0458817168301	0.2041666666666666	1.3202666666666667	1.1
814.0458817168301	0.18123333333333327	1.2441333333333333	1.1
814.0449340015884	0.1745666666666666	1.2421333333333338	1.1
814.53678673627	0.18623333333333325	1.2761333333333336	1.1
814.7386900515338	0.19153333333333328	1.3516000000000001	1.1
814.7386900515338	0.19149999999999992	1.3884	1.1
814.7386552707397	0.1934666666666666	1.3996	1.1
814.7356000362461	0.19243333333333326	1.4004	1.1
814.7367663553462	0.19243333333333326	1.4009333333333331	1.1
814.7367663553462	0.19843333333333327	1.4	1.1
814.7385101163073	0.19253333333333325	1.4	1.1
815.1335020139876	0.19049999999999992	1.3252000000000002	1.1
815.3221689382907	0.1892666666666666	1.1608	1.1
815.3221689382907	0.19589999999999994	1.2968000000000002	1.1
815.3230517146887	0.18783333333333327	1.321866666666667	1.1
816.2104534235472	0.18843333333333326	1.297466666666667	1.1
816.2100648023159	0.18033333333333326	1.16	1.1
816.2100648023159	0.17829999999999993	1.16	1.1
816.9045845084466	0.18133333333333326	1.2929333333333335	1.1
816.9076278813872	0.18209999999999993	1.3141333333333336	1.1
817.4974744831096	0.18209999999999993	1.2609333333333337	1.1
817.4974546657572	0.1807666666666666	1.2502666666666669	1.1
817.4974546657572	0.17589999999999995	1.2502666666666669	1.1
817.7954243916088	0.1795666666666666	1.1929333333333334	1.1
817.7954243916088	0.17863333333333328	1.1636000000000002	1.1
818.2880902194715	0.17499999999999993	1.16	1.1
818.2880902194715	0.17509999999999992	1.2368000000000003	1.1
818.291745880079	0.17009999999999992	1.1925333333333337	1.1
818.291745880079	0.1795666666666666	1.2196000000000005	1.1
818.4941866740695	0.17963333333333328	1.233466666666667	1.1
818.4941866740695	0.18109999999999993	1.2389333333333334	1.1
818.5897257406781	0.17289999999999994	1.1601333333333337	1.1
818.5951101595923	0.17526666666666663	1.16	1.1
818.5942273618896	0.17526666666666663	1.1640000000000001	1.1
819.7898456274868	0.1750333333333333	1.1640000000000001	1.1
819.7898456274868	0.17219999999999994	1.195466666666667	1.1
819.7908734655321	0.17853333333333327	1.3758666666666668	1.1
819.7872526628755	0.1865999999999999	1.339866666666667	1.1
820.4944231645105	0.1777666666666666	1.2697333333333336	1.1
820.4944231645105	0.1751666666666666	1.3501333333333334	1.1
820.5899035749791	0.17583333333333326	1.3697333333333335	1.1
820.5897080397956	0.17793333333333328	1.3204000000000002	1.1
820.988688791505	0.17913333333333326	1.325866666666667	1.1
820.988688791505	0.17719999999999994	1.3469333333333335	1.1
821.0869579711522	0.17719999999999994	1.3872000000000002	1.1
821.3922012754133	0.18269999999999995	1.321866666666667	1.1
821.7908994718173	0.1770666666666666	1.321866666666667	1.1
821.7908994718173	0.1773666666666666	1.3941333333333334	1.1
821.7907794689623	0.1707666666666666	1.3945333333333334	1.1
821.8881232683498	0.17889999999999992	1.3929333333333334	1.1
821.8878100444496	0.1795333333333333	1.3986666666666667	1.1
821.8879976599989	0.17659999999999992	1.3778666666666668	1.1
821.8879976599989	0.1644333333333333	1.3290666666666668	1.1
822.2914402766039	0.1685666666666666	1.315066666666667	1.1
822.2919839654082	0.17539999999999992	1.237066666666667	1.1
822.293519448878	0.16419999999999993	1.2252000000000003	1.1
822.293519448878	0.16053333333333328	1.2796000000000003	1.1
823.4926266362011	0.16053333333333328	1.4512	1.1
823.4991551205093	0.17186666666666658	1.4356	1.1
823.9982957105217	0.16533333333333328	1.4356	1.1
823.9982957105217	0.1619666666666666	1.370666666666667	1.1
823.9992939991494	0.16133333333333327	1.3372000000000002	1.1
823.9969887497435	0.17829999999999993	1.4287999999999998	1.1
824.4039951846364	0.16443333333333326	1.3268000000000002	1.1
824.8067829213974	0.16579999999999995	1.3164000000000002	1.1
824.8067829213974	0.15856666666666663	1.2960000000000003	1.1
824.8067829213974	0.17023333333333326	1.4331999999999998	1.1
825.3088910926441	0.16956666666666662	1.43	1.1
825.3078611288472	0.1612333333333333	1.4406666666666665	1.1
825.3078611288472	0.1612333333333333	1.4788	1.1
825.3075535771818	0.17173333333333327	1.4743999999999997	1.1
825.3078171410301	0.1728666666666666	1.4743999999999997	1.1
825.6204312901813	0.1647666666666666	1.4785333333333333	1.1
825.6204312901813	0.16383333333333328	1.3736000000000002	1.1
825.716248326449	0.15719999999999995	1.320266666666667	1.1
825.7152318465824	0.16249999999999995	1.3208000000000002	1.1
825.7152318465824	0.16359999999999994	1.3208000000000002	1.1
826.4301265665362	0.16776666666666662	1.4777333333333333	1.1
826.4301265665362	0.1732666666666666	1.4521333333333333	1.1
827.0338022396921	0.15433333333333327	1.2865333333333338	1.1
827.0338022396921	0.15949999999999995	1.323866666666667	1.1
827.0341463510226	0.15949999999999995	1.335866666666667	1.1
827.0341463510226	0.15079999999999993	1.3405333333333336	1.1
827.3443645128195	0.16546666666666657	1.3405333333333336	1.1
827.7474172029872	0.15289999999999995	1.3200000000000003	1.1
827.7474172029872	0.16689999999999994	1.3692000000000004	1.1
827.7474172029872	0.1640666666666666	1.48	1.1
827.9417689202498	0.16869999999999996	1.4802666666666668	1.1
828.659385135626	0.17329999999999993	1.4808000000000001	1.1
828.659385135626	0.16489999999999994	1.439733333333333	1.1
828.8580830164075	0.15969999999999995	1.4326666666666665	1.1
828.8580830164075	0.16646666666666662	1.48	1.1
829.2735534421657	0.1611666666666666	1.4584	1.1
829.3774950331427	0.15419999999999992	1.3246666666666669	1.1
829.376711275065	0.15419999999999992	1.463733333333333	1.1
829.376711275065	0.16353333333333328	1.463733333333333	1.1
829.3787253350845	0.15849999999999995	1.4789333333333332	1.1
829.5758446423313	0.16349999999999995	1.4593333333333331	1.1
829.9839933413323	0.15609999999999993	1.3670666666666667	1.1
829.9839933413323	0.1619333333333333	1.4017333333333333	1.1
829.9801676882519	0.16199999999999992	1.3968	1.1
830.3981636575211	0.16406666666666658	1.427733333333333	1.1
830.5983306040558	0.15989999999999996	1.4792	1.1
830.5983306040558	0.16219999999999993	1.4220000000000002	1.1
830.6022895430528	0.16703333333333326	1.3204000000000002	1.1
831.113223183425	0.15516666666666662	1.3318666666666668	1.1
831.2147253276581	0.15516666666666662	1.3993333333333333	1.1
831.7256071647297	0.1672666666666666	1.3993333333333333	1.1
831.7256071647297	0.16529999999999995	1.4796	1.1
831.7256071647297	0.1687666666666666	1.3364000000000003	1.1
832.1382740771477	0.16273333333333326	1.313866666666667	1.1
832.2428711291548	0.16929999999999992	1.3752000000000002	1.1
832.2428711291548	0.17043333333333327	1.3212000000000002	1.1
832.2428711291548	0.16203333333333328	1.3165333333333336	1.1
832.6494757206342	0.17539999999999994	1.4797333333333331	1.1
832.9629861027665	0.16913333333333327	1.4764000000000002	1.1
832.9629861027665	0.17899999999999994	1.4	1.1
832.9625815519618	0.17259999999999995	1.4101333333333335	1.1
832.9640224298472	0.17259999999999995	1.3613333333333337	1.1
833.3782344475399	0.1699666666666666	1.3201333333333336	1.1
833.3782344475399	0.18353333333333324	1.3201333333333336	1.1
833.3782344475399	0.18339999999999995	1.3202666666666667	1.1
833.8856757288195	0.1974666666666666	1.3217333333333336	1.1
833.8895445713351	0.20183333333333323	1.153066666666667	1.1
834.2051362516295	0.1984333333333333	1.1392000000000002	1.1
834.2051362516295	0.21886666666666657	1.1117333333333335	1.1
834.3031442363697	0.23146666666666657	1.0672	1.1
834.5088376015728	0.1921666666666666	0.5332	1.1
834.8198184844515	0.1673666666666666	0.22893333333333354	1.1
834.8198184844515	0.1587666666666666	0.17480000000000015	1.1
835.2334682092452	0.1587666666666666	0.061333333333333385	1.1
835.2335042228619	0.12966666666666662	0.0046666666666666705	1.1
835.4341924805985	0.11629999999999996	0.0046666666666666705	1.1
835.6474278523862	0.1166333333333333	-0.024666666666666687	1.1
835.6474278523862	0.10943333333333329	-0.032533333333333365	1.1
836.0604542297306	0.10899999999999996	-0.0334666666666667	1.1
836.5838705610305	0.1063333333333333	-0.03360000000000003	1.1
836.5837637208315	0.10873333333333328	-0.0350666666666667	1.1
836.5837637208315	0.10946666666666663	-0.03280000000000003	1.1
836.7944396786364	0.10386666666666661	-0.03093333333333336	1.1
836.5838217280074	0.10439999999999995	-0.03240000000000003	1.1
836.9944493579081	0.10729999999999995	-0.03293333333333336	1.1
836.9944493579081	0.10729999999999995	-0.03413333333333336	1.1
836.9989480086117	0.11149999999999996	-0.03413333333333336	1.1
837.1057532571059	0.10966666666666662	-0.034266666666666695	1.1
837.6283313037545	0.11099999999999997	-0.036800000000000034	1.1
837.6283313037545	0.1063333333333333	-0.034266666666666695	1.1
837.628281105566	0.1075333333333333	-0.03240000000000003	1.1
837.627607503379	0.10953333333333329	-0.0362666666666667	1.1
838.1444181666606	0.11089999999999998	-0.03440000000000003	1.1
838.251161691678	0.11023333333333328	-0.03360000000000003	1.1
838.251161691678	0.10606666666666661	-0.03360000000000003	1.1
838.4580203415752	0.10449999999999995	-0.03266666666666669	1.1
838.978855450059	0.1117333333333333	-0.0350666666666667	1.1
838.9825617891364	0.1117333333333333	-0.031333333333333366	1.1
838.9825617891364	0.10296666666666662	-0.031333333333333366	1.1
839.3010044871057	0.1123333333333333	-0.03573333333333337	1.1
839.4051140956852	0.1063333333333333	-0.034266666666666695	1.1
839.5086706816579	0.10529999999999996	-0.03440000000000003	1.1
839.5086706816579	0.10176666666666662	-0.032266666666666693	1.1
840.3463469497474	0.10376666666666663	-0.03213333333333336	1.1
840.5540051426682	0.11116666666666662	-0.0338666666666667	1.1
840.6641127131488	0.10459999999999996	-0.03413333333333336	1.1
840.86330108173	0.10256666666666661	-0.03520000000000003	1.1
840.86330108173	0.10373333333333327	-0.03360000000000003	1.1
840.8632377800116	0.10463333333333329	-0.032266666666666693	1.1
840.8677143633171	0.10463333333333329	-0.03293333333333336	1.1
841.2838260969587	0.11323333333333328	-0.034800000000000025	1.1
841.2838260969587	0.10616666666666663	-0.034800000000000025	1.1
841.2838504333174	0.11013333333333328	-0.03453333333333337	1.1
841.7110633115069	0.10143333333333328	-0.03360000000000003	1.1
841.6090707557885	0.1103333333333333	-0.0334666666666667	1.1
841.6090707557885	0.10816666666666663	-0.03293333333333336	1.1
841.9122511241845	0.10196666666666664	-0.03373333333333336	1.1
842.4458007399877	0.10809999999999995	-0.03146666666666669	1.1
842.6489603545889	0.10723333333333329	-0.0346666666666667	1.1
842.8712646921682	0.10639999999999995	-0.0334666666666667	1.1
842.8712646921682	0.10539999999999995	-0.03413333333333336	1.1
842.8726349400926	0.10539999999999995	-0.03320000000000003	1.1
843.1828573490739	0.10893333333333328	-0.034266666666666695	1.1
843.60599826899	0.10206666666666663	-0.034266666666666695	1.1
843.60599826899	0.10843333333333328	-0.033066666666666696	1.1
843.6023300625549	0.10849999999999994	-0.03400000000000003	1.1
844.346935938359	0.10526666666666662	-0.03453333333333337	1.1
844.4473111548183	0.1094333333333333	-0.03320000000000003	1.1
844.4473111548183	0.10566666666666663	-0.03333333333333336	1.1
844.6660694534035	0.10246666666666662	-0.03360000000000003	1.1
844.8745520111916	0.1062333333333333	-0.0338666666666667	1.1
844.776112428576	0.11006666666666663	-0.0350666666666667	1.1
844.8286520710117	0.10006666666666662	-0.033066666666666696	1.1
844.8286520710117	0.10006666666666662	-0.03360000000000003	1.1
843.075578664787	0.10563333333333327	-0.03266666666666669	1.1
843.075578664787	0.10599999999999996	-0.03106666666666669	1.1
842.8668442325115	0.11103333333333329	-0.033066666666666696	1.1
842.4494541317893	0.11103333333333329	-0.03440000000000003	1.1
841.7127148607977	0.10706666666666663	-0.03533333333333336	1.1
841.7127148607977	0.10853333333333329	-0.03533333333333336	1.1
841.7081550238998	0.10936666666666663	-0.035466666666666695	1.1
841.7081716171737	0.10469999999999996	-0.03266666666666669	1.1
841.6027861155935	0.11196666666666663	-0.03373333333333336	1.1
841.2881583719366	0.10619999999999995	-0.0334666666666667	1.1
841.2881583719366	0.10723333333333329	-0.034800000000000025	1.1
841.2876980883591	0.10716666666666662	-0.03413333333333336	1.1
840.9676462306468	0.10836666666666664	-0.034266666666666695	1.1
840.9677263895833	0.10449999999999995	-0.03373333333333336	1.1
840.9677263895833	0.10896666666666664	-0.0346666666666667	1.1
840.5528151784927	0.10896666666666664	-0.034933333333333365	1.1
840.5441004379429	0.11713333333333328	-0.034933333333333365	1.1
840.3362203682728	0.11166666666666662	-0.034933333333333365	1.1
840.3362203682728	0.11253333333333328	-0.03440000000000003	1.1
839.8191363007758	0.11429999999999994	-0.03533333333333336	1.1
839.4015016577374	0.11209999999999996	-0.0374666666666667	1.1
839.5095356595577	0.11006666666666663	-0.0350666666666667	1.1
839.5095356595577	0.10669999999999998	-0.03373333333333336	1.1
839.1417771313398	0.10759999999999996	-0.03320000000000003	1.1
838.978683329092	0.11153333333333329	-0.034933333333333365	1.1
838.9796548270406	0.10299999999999995	-0.03360000000000003	1.1
838.9796548270406	0.10299999999999995	-0.0350666666666667	1.1
838.9796548270406	0.11183333333333327	-0.03573333333333337	1.1
838.0395726811638	0.10943333333333329	-0.03573333333333337	1.1
837.8271002527829	0.11026666666666664	-0.0346666666666667	1.1
837.7292947895646	0.10826666666666664	-0.03586666666666669	1.1
837.7292947895646	0.10949999999999996	-0.0338666666666667	1.1
837.6303677738479	0.10773333333333329	-0.0362666666666667	1.1
837.5227881119848	0.10896666666666661	-0.03520000000000003	1.1
837.1081954343724	0.1051333333333333	-0.034266666666666695	1.1
837.1081954343724	0.10829999999999997	-0.03440000000000003	1.1
836.9948962620265	0.11199999999999993	-0.035466666666666695	1.1
836.7882037426003	0.10883333333333328	-0.03440000000000003	1.1
836.5840065724591	0.10883333333333328	-0.03453333333333337	1.1
836.5840065724591	0.10759999999999996	-0.03453333333333337	1.1
836.5839590330451	0.1082333333333333	-0.034266666666666695	1.1
836.5827065354938	0.10879999999999995	-0.03400000000000003	1.1
836.0622878249832	0.10256666666666661	-0.03453333333333337	1.1
836.0617365645148	0.11119999999999995	-0.0338666666666667	1.1
836.0617365645148	0.09886666666666662	-0.03200000000000003	1.1
835.8572152468694	0.11063333333333328	-0.03440000000000003	1.1
835.4421102100342	0.10969999999999994	-0.032266666666666693	1.1
835.4375067559006	0.11589999999999993	-0.022133333333333352	1.1
835.4375067559006	0.1260333333333333	-0.01040000000000001	1.1
835.2382276313542	0.1260333333333333	0.04146666666666671	1.1
834.7137600742453	0.12669999999999998	0.13613333333333344	1.1
834.8242990853871	0.15503333333333327	0.13613333333333344	1.1
834.8242990853871	0.17909999999999993	0.24786666666666685	1.1
834.3037015575225	0.19979999999999995	0.6573333333333333	1.1
834.3036744885562	0.23369999999999996	1.0541333333333334	1.1
833.8977480513186	0.23369999999999996	1.0541333333333334	1.1
833.8954370198234	0.23369999999999996	1.0541333333333334	1.1
833.8954370198234	0.23369999999999996	1.0541333333333334	1.1
833.3791949516693	0.19073333333333325	1.3217333333333336	1.1
833.3756279243496	0.19376666666666661	1.4072	1.1
833.3792867244084	0.18869999999999992	1.48	1.1
833.3792867244084	0.18273333333333328	1.4666666666666666	1.1
832.9595728423764	0.18089999999999992	1.3990666666666667	1.1
832.6507328665704	0.16923333333333326	1.4002666666666668	1.1
832.6507328665704	0.16803333333333328	1.472	1.1
832.6507328665704	0.16679999999999992	1.48	1.1
832.6494380856464	0.16679999999999992	1.4798666666666667	1.1
832.1443022127007	0.18069999999999994	1.3620000000000003	1.1
832.1443022127007	0.16319999999999993	1.3620000000000003	1.1
832.1443022127007	0.15906666666666658	1.3212000000000002	1.1
831.5278601779023	0.16349999999999995	1.3089333333333335	1.1
831.7285354833496	0.1650666666666666	1.3201333333333336	1.1
831.2166862554564	0.1592666666666666	1.3948000000000003	1.1
831.0176287685404	0.15786666666666663	1.3957333333333335	1.1
831.0176287685404	0.15673333333333328	1.4066666666666667	1.1
830.602499696913	0.15949999999999995	1.3200000000000003	1.1
830.3986167268239	0.1510666666666666	1.3956000000000002	1.1
830.0853568676617	0.16306666666666658	1.3966666666666667	1.1
830.0853568676617	0.16306666666666658	1.3209333333333335	1.1
830.0854412902904	0.1678999999999999	1.3662666666666667	1.1
829.4759539688032	0.1585333333333333	1.3662666666666667	1.1
829.4792978486117	0.16089999999999993	1.3548000000000002	1.1
829.4792978486117	0.16039999999999993	1.4236000000000002	1.1
829.3795213868689	0.16619999999999996	1.5097333333333331	1.1
829.3774701370138	0.16493333333333327	1.4461333333333333	1.1
828.8667970532439	0.16223333333333328	1.3341333333333338	1.1
828.8658905438965	0.15253333333333327	1.3594666666666668	1.1
828.8658905438965	0.16463333333333327	1.48	1.1
828.6641009543322	0.16239999999999993	1.3949333333333334	1.1
828.560442448762	0.16779999999999995	1.340666666666667	1.1
828.2504328711132	0.16779999999999995	1.3961333333333334	1.1
828.2504328711132	0.1585333333333333	1.4527999999999999	1.1
828.0475720396345	0.16176666666666661	1.4527999999999999	1.1
827.8425805606129	0.16209999999999994	1.4487999999999999	1.1
827.8425805606129	0.1684666666666666	1.403066666666667	1.1
827.8425805606129	0.16333333333333327	1.3286666666666669	1.1
827.2394575917921	0.16223333333333326	1.3216000000000003	1.1
826.8252187252039	0.15303333333333327	1.3632000000000004	1.1
826.9305814330004	0.1637333333333333	1.3305333333333336	1.1
826.9305814330004	0.15716666666666662	1.3030666666666668	1.1
826.9305814330004	0.16109999999999994	1.3881333333333332	1.1
825.7106406299333	0.15853333333333328	1.4537333333333333	1.1
825.6185766809773	0.15853333333333328	1.3277333333333334	1.1
825.6185454254235	0.15893333333333326	1.3586666666666671	1.1
825.6185454254235	0.16529999999999995	1.3586666666666671	1.1
825.6143798148956	0.16833333333333328	1.3569333333333335	1.1
825.3157103498638	0.16273333333333329	1.4747999999999999	1.1
825.2117138241078	0.1681666666666666	1.4315999999999998	1.1
825.2117138241078	0.1738666666666666	1.3461333333333334	1.1
825.2141819879399	0.1627333333333333	1.2653333333333334	1.1
824.9029824318842	0.1606666666666666	1.2506666666666668	1.1
824.9029824318842	0.1726666666666666	1.4461333333333333	1.1
824.3061023361232	0.16873333333333326	1.4178666666666666	1.1
824.3061023361232	0.16403333333333325	1.3410666666666669	1.1
824.4050326322318	0.16403333333333325	1.3817333333333335	1.1
823.8985920972813	0.17433333333333328	1.3956	1.1
823.8985920972813	0.17199999999999993	1.3956	1.1
823.8985920972813	0.17313333333333328	1.3873333333333335	1.1
823.4994225637054	0.1698666666666666	1.4132	1.1
823.4971447236372	0.17469999999999994	1.4784	1.1
822.2942328470289	0.17379999999999995	1.48	1.1
822.2942328470289	0.16666666666666663	1.3898666666666668	1.1
822.1821159179837	0.17319999999999994	1.319466666666667	1.1
822.1821159179837	0.17706666666666662	1.319066666666667	1.1
821.8890610036545	0.17103333333333326	1.3202666666666667	1.1
821.8890610036545	0.1766666666666666	1.3314666666666668	1.1
821.8890610036545	0.1716666666666666	1.4081333333333332	1.1
821.8914883043027	0.1716666666666666	1.4409333333333332	1.1
821.7892672454981	0.17913333333333326	1.4001333333333335	1.1
821.7930656554611	0.17403333333333326	1.4001333333333335	1.1
821.7930656554611	0.17613333333333328	1.3653333333333337	1.1
821.7930656554611	0.1695666666666666	1.3477333333333334	1.1
821.0879022961357	0.17249999999999993	1.3958666666666666	1.1
821.0852981220154	0.17959999999999993	1.4004	1.1
821.0852981220154	0.17679999999999993	1.3830666666666669	1.1
820.5877526062794	0.17293333333333327	1.3206666666666669	1.1
820.5924993423293	0.17169999999999994	1.3196000000000003	1.1
820.5879862783535	0.17329999999999993	1.3217333333333336	1.1
820.5879862783535	0.17619999999999994	1.3333333333333335	1.1
819.7893883931438	0.17619999999999994	1.3412000000000004	1.1
819.7893569341829	0.16903333333333329	1.3412000000000004	1.1
818.6877801396402	0.18619999999999992	1.3734666666666668	1.1
818.5907626950134	0.1718666666666666	1.247866666666667	1.1
818.5907626950134	0.18743333333333329	1.3213333333333337	1.1
818.5950524173091	0.1783333333333333	1.2300000000000002	1.1
818.5907692714396	0.1700333333333333	1.1601333333333337	1.1
818.2869233564414	0.17319999999999994	1.1716	1.1
818.2869233564414	0.17469999999999994	1.2313333333333334	1.1
818.2911619709217	0.18039999999999992	1.2132000000000003	1.1
818.191821629872	0.17483333333333329	1.2436000000000003	1.1
818.191821629872	0.18596666666666659	1.3212000000000004	1.1
818.191821629872	0.18596666666666659	1.1662666666666668	1.1
817.4905174991096	0.17013333333333325	1.2381333333333335	1.1
817.4904847176757	0.18413333333333326	1.2381333333333335	1.1
817.305585376357	0.17569999999999994	1.2400000000000002	1.1
816.8096115681514	0.17069999999999994	1.1890666666666667	1.1
816.8096115681514	0.18499999999999994	1.3200000000000003	1.1
816.2099677743743	0.1823666666666666	1.3137333333333336	1.1
816.2057748133744	0.18763333333333326	1.16	1.1
815.3233724769085	0.19303333333333328	1.16	1.1
815.3233724769085	0.18406666666666663	1.3221333333333334	1.1
815.1299489391095	0.18239999999999992	1.2712000000000003	1.1
815.1300651469204	0.17553333333333326	1.16	1.1
814.7420715271317	0.17553333333333326	1.1690666666666667	1.1
814.7420715271317	0.17973333333333325	1.3990666666666667	1.1
814.7420746464286	0.19213333333333327	1.3990666666666667	1.1
814.7381659522877	0.19199999999999992	1.4018666666666668	1.1
814.7384809361677	0.18599999999999994	1.4072	1.1
814.7384809361677	0.19253333333333325	1.4013333333333335	1.1
814.5485360630994	0.20083333333333325	1.3820000000000001	1.1
814.5485360630994	0.1811666666666666	1.2102666666666668	1.1
813.9553714256671	0.1900666666666666	1.2422666666666669	1.1
813.1641387742357	0.2012666666666666	1.3328000000000002	1.1
813.1641387742357	0.20163333333333328	1.3974666666666666	1.1
813.1663258849695	0.19936666666666658	1.373866666666667	1.1
812.680572793843	0.19936666666666658	1.3248000000000002	1.1
812.6804689604435	0.20983333333333326	1.3610666666666669	1.1
812.6804689604435	0.1996666666666666	1.3610666666666669	1.1
812.6804689604435	0.19279999999999992	1.3790666666666667	1.1
811.8890627814638	0.19043333333333326	1.2549333333333337	1.1
811.5040197278714	0.19896666666666663	1.2156000000000002	1.1
811.5040197278714	0.18746666666666661	1.164666666666667	1.1
811.4043066263356	0.1828666666666666	1.2112000000000003	1.1
811.407812067522	0.17799999999999994	1.1748000000000003	1.1
811.5082463612429	0.20133333333333325	1.2802666666666669	1.1
811.3047198761385	0.19209999999999994	1.3044000000000004	1.1
811.3047198761385	0.18389999999999995	1.314	1.1
811.3047198761385	0.18389999999999995	1.3165333333333336	1.1
811.1103944287438	0.1986999999999999	1.4048	1.1
811.1093103401782	0.1957333333333333	1.4048	1.1
811.1093103401782	0.2065333333333333	1.4725333333333332	1.1
810.6273714529186	0.19149999999999995	1.2958666666666667	1.1
810.6273240439665	0.19296666666666662	1.3285333333333336	1.1
810.2353730818667	0.19436666666666658	1.2993333333333335	1.1
810.2353730818667	0.19119999999999995	1.16	1.1
809.4541899388033	0.19016666666666662	1.1656000000000002	1.1
809.4532148029019	0.18743333333333326	1.16	1.1
809.4542157296898	0.18389999999999992	1.16	1.1
809.4532086639491	0.1841666666666666	1.16	1.1
809.4532086639491	0.17903333333333327	1.1605333333333336	1.1
808.1942217521736	0.17903333333333327	1.1606666666666667	1.1
808.1931138706523	0.19593333333333326	1.1606666666666667	1.1
808.1017490579096	0.1812666666666666	1.1548000000000003	1.1
808.1017490579096	0.18273333333333328	1.1566666666666667	1.1
808.1006441306007	0.19663333333333327	1.1602666666666668	1.1
807.8994210883565	0.19183333333333324	1.1690666666666667	1.1
807.8070878638418	0.18676666666666658	1.16	1.1
807.8070878638418	0.1916666666666666	1.2122666666666668	1.1
807.8070878638418	0.19546666666666657	1.2400000000000004	1.1
807.7097961408957	0.19626666666666662	1.2286666666666668	1.1
807.4179712098511	0.1910666666666666	1.1601333333333337	1.1
807.4179712098511	0.1910666666666666	1.1600000000000001	1.1
807.4214554218505	0.19093333333333326	1.1644	1.1
807.0353650497399	0.19199999999999992	1.1644	1.1
806.5822059483868	0.1881666666666666	1.233466666666667	1.1
806.0763817643941	0.19946666666666657	1.137066666666667	1.1
806.0763817643941	0.1918666666666666	1.2392000000000003	1.1
806.0726421341368	0.19183333333333327	1.2389333333333334	1.1
806.0749116219733	0.20083333333333328	1.2166666666666666	1.1
805.7777084501956	0.20239999999999994	1.1993333333333336	1.1
805.7777084501956	0.18356666666666657	1.1948	1.1
804.8206327713674	0.18933333333333327	1.1745333333333337	1.1
804.7213940735918	0.1900666666666666	1.1676000000000002	1.1
804.628312567352	0.1900666666666666	1.1593333333333333	1.1
804.628312567352	0.18036666666666662	1.1548000000000003	1.1
804.6302517631927	0.18409999999999993	1.1548000000000003	1.1
804.4397958784314	0.18196666666666658	1.1434666666666666	1.1
804.3504226861961	0.1844666666666666	1.0838666666666668	1.1
804.3480293853061	0.18759999999999993	1.0804	1.1
804.3480293853061	0.18793333333333326	1.1454666666666669	1.1
804.1998676762347	0.17883333333333326	1.1300000000000001	1.1
804.1483515394319	0.1892999999999999	1.1186666666666667	1.1
803.6673052246907	0.1780666666666666	1.1069333333333335	1.1
803.6673052246907	0.1924666666666666	1.1601333333333335	1.1
803.2881431334292	0.19026666666666658	1.1653333333333336	1.1
802.7187630243433	0.19026666666666658	1.1604	1.1
802.7214016006261	0.1929666666666666	1.2881333333333336	1.1
802.7214016006261	0.19413333333333327	1.2881333333333336	1.1
802.7171990309259	0.18913333333333326	1.3048000000000002	1.1
801.3931434008015	0.1883333333333333	1.291866666666667	1.1
801.3924519021631	0.1837666666666666	1.1608	1.1
801.3924519021631	0.1892999999999999	1.0923999999999998	1.1
801.2861175119368	0.19109999999999994	1.1546666666666667	1.1
801.1907521896327	0.18586666666666662	1.1609333333333334	1.1
801.1925691794245	0.18919999999999992	1.239866666666667	1.1
801.0987011088949	0.1892999999999999	1.2877333333333334	1.1
801.0987011088949	0.18759999999999993	1.1492000000000002	1.1
801.1006883437274	0.18239999999999992	1.0786666666666667	1.1
801.0985701550438	0.18239999999999992	1.0610666666666666	1.1
801.0991622637496	0.16909999999999994	1.0610666666666666	1.1
801.0991622637496	0.17563333333333328	1.0696	1.1
800.8989281105073	0.17499999999999996	1.072266666666667	1.1
800.4288739307309	0.18646666666666661	1.1518666666666668	1.1
800.3386796715066	0.18339999999999995	1.1456000000000002	1.1
800.3386796715066	0.1794666666666666	1.0837333333333334	1.1
