wavelength(nm)	flourescence PMT(V)	ti_saph Power (V)	Gain (V)
800.8100852250807	0.18493333333333328	1.187066666666667	1.1
801.0971340191508	0.18266666666666662	1.16	1.1
801.0971340191508	0.18266666666666662	1.0785333333333333	1.1
801.1890133377747	0.1769666666666666	1.0793333333333335	1.1
801.1888864199151	0.18896666666666662	1.0793333333333335	1.1
801.2804982103237	0.1816666666666666	1.1329333333333336	1.1
801.2804982103237	0.1757666666666666	1.1757333333333335	1.1
801.3853854187826	0.18209999999999993	1.1597333333333333	1.1
801.3853854187826	0.17993333333333325	1.0814666666666668	1.1
801.3853854187826	0.19299999999999995	1.0814666666666668	1.1
802.7222844646607	0.18403333333333327	1.1172000000000002	1.1
802.7222844646607	0.18136666666666662	1.2381333333333335	1.1
802.8156612134522	0.18913333333333326	1.2184000000000001	1.1
803.3787874393731	0.19629999999999992	1.1617333333333337	1.1
803.482149885705	0.19629999999999992	1.16	1.1
803.482149885705	0.18603333333333327	1.2508000000000004	1.1
804.0494891933996	0.18919999999999995	1.2508000000000004	1.1
804.1502271327988	0.18753333333333325	1.259866666666667	1.1
804.244366947305	0.18509999999999996	1.1998666666666669	1.1
804.244366947305	0.1928666666666666	1.1598666666666668	1.1
804.3457337501757	0.19009999999999996	1.1597333333333333	1.1
804.3455668461443	0.18053333333333327	1.1334666666666668	1.1
804.3455668461443	0.18766666666666662	1.0796	1.1
804.3455668461443	0.1848666666666666	1.0679999999999998	1.1
804.6342380356836	0.17396666666666658	1.1134666666666668	1.1
804.6249331991787	0.19016666666666662	1.1566666666666667	1.1
804.7315889108424	0.19016666666666662	1.1389333333333336	1.1
804.7315889108424	0.1773666666666666	1.1594666666666669	1.1
804.8271993147932	0.18409999999999993	1.1594666666666669	1.1
805.7798446907176	0.19599999999999992	1.2217333333333336	1.1
806.0746953265154	0.1946666666666666	1.2137333333333336	1.1
806.0746953265154	0.18506666666666657	1.233066666666667	1.1
806.074669115466	0.19403333333333325	1.3106666666666669	1.1
806.074669115466	0.18899999999999992	1.2862666666666671	1.1
806.648301219454	0.19053333333333325	1.233466666666667	1.1
806.648301219454	0.1900666666666666	1.1604	1.1
806.9372246811863	0.19263333333333327	1.164266666666667	1.1
807.4188391783258	0.18839999999999993	1.224266666666667	1.1
807.4241653646048	0.18839999999999993	1.16	1.1
807.7125171113172	0.1810666666666666	1.16	1.1
807.7125171113172	0.19853333333333326	1.16	1.1
807.7096858721243	0.1925666666666666	1.1601333333333335	1.1
807.9064710238102	0.1984333333333333	1.2522666666666669	1.1
809.6446199217053	0.1995666666666666	1.3192000000000004	1.1
809.6446199217053	0.1902666666666666	1.2440000000000002	1.1
807.9930403312454	0.18956666666666658	1.1748000000000003	1.1
808.0995993576308	0.18753333333333325	1.1938666666666669	1.1
808.1006626351203	0.18773333333333325	1.2992000000000004	1.1
808.1006626351203	0.19856666666666659	1.3033333333333337	1.1
808.1951790593974	0.19856666666666659	1.2340000000000002	1.1
808.1993743733898	0.19076666666666658	1.1600000000000001	1.1
809.067287491744	0.18536666666666662	1.1600000000000001	1.1
809.067287491744	0.1849666666666666	1.2025333333333335	1.1
809.067287491744	0.1964666666666666	1.2841333333333338	1.1
809.4539251907707	0.1903666666666666	1.2216000000000002	1.1
809.4539251907707	0.19656666666666658	1.2000000000000002	1.1
809.4539251907707	0.19353333333333325	1.1778666666666666	1.1
809.5497283187605	0.1912666666666666	1.1740000000000002	1.1
810.2331507820527	0.1909666666666666	1.1682666666666668	1.1
810.6259464711288	0.1935666666666666	1.2157333333333336	1.1
810.7209109221438	0.20033333333333328	1.2894666666666668	1.1
810.7209109221438	0.20033333333333328	1.2288000000000001	1.1
810.9138151540669	0.18759999999999993	1.2897333333333336	1.1
810.9138151540669	0.20523333333333327	1.2897333333333336	1.1
811.1125583385216	0.19586666666666658	1.3277333333333334	1.1
811.1125583385216	0.19743333333333324	1.321866666666667	1.1
811.4042779137064	0.19609999999999994	1.3582666666666672	1.1
811.4053381542764	0.19969999999999993	1.3848000000000003	1.1
811.5006411271826	0.20009999999999994	1.3146666666666669	1.1
811.5006411271826	0.19173333333333328	1.1985333333333335	1.1
811.4993213752203	0.18659999999999993	1.1613333333333336	1.1
811.5048378336832	0.18293333333333328	1.16	1.1
811.89037917137	0.1846333333333333	1.1598666666666668	1.1
811.89037917137	0.1846333333333333	1.1769333333333334	1.1
812.6803848113179	0.19856666666666659	1.3897333333333335	1.1
812.6786580200871	0.19599999999999995	1.3897333333333335	1.1
813.163917125989	0.1971666666666666	1.3893333333333335	1.1
813.163917125989	0.19233333333333325	1.3100000000000003	1.1
813.1672695691293	0.19323333333333326	1.2036000000000002	1.1
813.0671509410544	0.18629999999999997	1.1618666666666668	1.1
813.0671509410544	0.19593333333333326	1.2345333333333335	1.1
814.046528745759	0.18519999999999992	1.2908000000000004	1.1
814.046528745759	0.1893666666666666	1.2693333333333336	1.1
814.046528745759	0.18843333333333326	1.2684000000000004	1.1
814.5331658362558	0.18913333333333326	1.3112000000000004	1.1
814.7384971971488	0.18913333333333326	1.3886666666666667	1.1
814.7384971971488	0.18823333333333325	1.4001333333333335	1.1
814.7421152544097	0.19619999999999993	1.4001333333333335	1.1
814.7407838968486	0.19399999999999992	1.4008	1.1
814.7363718551211	0.19326666666666661	1.4001333333333335	1.1
814.7363718551211	0.18923333333333328	1.3968	1.1
815.1342775203669	0.1786666666666666	1.1794666666666667	1.1
815.3274894219571	0.1942666666666666	1.1708	1.1
815.3274894219571	0.1847333333333333	1.3017333333333336	1.1
815.3274894219571	0.17963333333333323	1.3205333333333336	1.1
816.2097555385463	0.18313333333333326	1.2933333333333334	1.1
816.2078861282203	0.16243333333333326	1.16	1.1
816.909994225127	0.16243333333333326	1.16	1.1
816.909994225127	0.17873333333333324	1.289066666666667	1.1
816.9073951829511	0.1853666666666666	1.289066666666667	1.1
817.3037163684046	0.19039999999999993	1.2652	1.1
817.4009315417055	0.1824666666666666	1.3173333333333337	1.1
817.4951700954574	0.18673333333333328	1.3152000000000001	1.1
817.4951700954574	0.18579999999999994	1.2412	1.1
817.7946202372619	0.17279999999999995	1.1725333333333334	1.1
818.2890475182081	0.1775666666666666	1.286666666666667	1.1
818.1955286486261	0.18286666666666662	1.3225333333333336	1.1
818.1955286486261	0.1829666666666666	1.276266666666667	1.1
818.2880260813035	0.17733333333333326	1.2164000000000001	1.1
818.5886039765945	0.17733333333333326	1.2470666666666668	1.1
818.5912369636654	0.17679999999999993	1.1648000000000003	1.1
818.5912369636654	0.17503333333333326	1.1648000000000003	1.1
818.594053993736	0.18089999999999995	1.16	1.1
818.6883255412001	0.1661666666666666	1.16	1.1
819.7885605878744	0.17989999999999995	1.2612000000000003	1.1
819.7885605878744	0.18133333333333326	1.3086666666666669	1.1
819.7873797126806	0.1808333333333333	1.3444000000000003	1.1
819.7824071497162	0.17533333333333326	1.333866666666667	1.1
820.4930756797623	0.17963333333333326	1.275866666666667	1.1
820.4930756797623	0.19279999999999992	1.3437333333333334	1.1
820.5903248649292	0.1824666666666666	1.3318666666666668	1.1
820.5855119991346	0.1824666666666666	1.3245333333333336	1.1
820.7839042432669	0.18003333333333327	1.3209333333333335	1.1
820.7839042432669	0.18739999999999993	1.3209333333333335	1.1
821.0867158363407	0.17353333333333323	1.3985333333333334	1.1
821.087877096476	0.17559999999999992	1.3970666666666667	1.1
821.087877096476	0.17259999999999992	1.3365333333333334	1.1
821.8901254004389	0.18629999999999994	1.3836000000000002	1.1
821.8901254004389	0.17689999999999992	1.4	1.1
821.7946966631814	0.18136666666666662	1.4046666666666665	1.1
821.8901640279253	0.17423333333333327	1.4008	1.1
821.8913543897729	0.1811666666666666	1.3918666666666668	1.1
821.8913543897729	0.1811666666666666	1.3202666666666667	1.1
822.2923348525011	0.17213333333333328	1.3189333333333335	1.1
821.0941001967932	0.1781666666666666	1.3189333333333335	1.1
822.4897878172908	0.16183333333333327	1.2388000000000001	1.1
822.4897878172908	0.16169999999999995	1.2276000000000002	1.1
822.4897878172908	0.16853333333333329	1.3092000000000004	1.1
823.4962257310442	0.17143333333333327	1.4555999999999998	1.1
823.7936543432359	0.1750666666666666	1.4549333333333334	1.1
823.7936543432359	0.18139999999999992	1.3870666666666667	1.1
824.0983512140931	0.1710666666666666	1.3809333333333333	1.1
824.0982790211592	0.1678666666666666	1.3672000000000002	1.1
824.4023766169424	0.1733666666666666	1.3214666666666668	1.1
824.4023766169424	0.1733666666666666	1.2832000000000006	1.1
824.4023766169424	0.15739999999999996	1.2428000000000001	1.1
824.8065944567641	0.1648666666666666	1.2428000000000001	1.1
825.213003720417	0.1698666666666666	1.4192	1.1
825.213003720417	0.16329999999999995	1.3454666666666668	1.1
825.2134583166004	0.16623333333333326	1.2749333333333335	1.1
825.4128108734392	0.16053333333333328	1.2496	1.1
825.4128108734392	0.1682666666666666	1.3793333333333335	1.1
825.7125883960524	0.17943333333333328	1.4182666666666668	1.1
825.7125883960524	0.15739999999999996	1.3909333333333331	1.1
825.6144198196856	0.17093333333333327	1.3962666666666665	1.1
825.712493730506	0.1650666666666666	1.321866666666667	1.1
826.114521760152	0.1650666666666666	1.319466666666667	1.1
826.114521760152	0.16046666666666662	1.48	1.1
826.1216253705973	0.1662333333333333	1.4389333333333334	1.1
827.0729358729499	0.15969999999999995	1.4389333333333334	1.1
827.0729358729499	0.1650666666666666	1.3173333333333335	1.1
827.0729358729499	0.16296666666666662	1.3609333333333336	1.1
827.0363405748021	0.15923333333333328	1.3536000000000001	1.1
827.0363405748021	0.15949999999999995	1.3393333333333335	1.1
827.9415857753909	0.15986666666666663	1.320266666666667	1.1
827.9415857753909	0.1565999999999999	1.2784000000000004	1.1
828.0552083120538	0.1593666666666666	1.3230666666666668	1.1
828.0552475724934	0.16449999999999992	1.4510666666666667	1.1
828.6592029102628	0.1579333333333333	1.4796	1.1
828.6592029102628	0.1579333333333333	1.3437333333333334	1.1
828.6606268418913	0.1699666666666666	1.3437333333333334	1.1
828.6606268418913	0.1670666666666666	1.4009333333333331	1.1
829.3785793051345	0.16703333333333328	1.4785333333333333	1.1
829.3761720674079	0.16303333333333328	1.3912	1.1
829.3761720674079	0.15136666666666662	1.3253333333333335	1.1
829.3831224130208	0.16403333333333325	1.4768	1.1
829.475172674233	0.15936666666666663	1.444	1.1
829.5770751481699	0.1552666666666666	1.3844	1.1
829.5770751481699	0.1628666666666666	1.321866666666667	1.1
829.476870645728	0.16303333333333328	1.3241333333333338	1.1
829.9856717971772	0.1619666666666666	1.3953333333333333	1.1
830.401829480906	0.1619666666666666	1.3916000000000002	1.1
830.401829480906	0.15946666666666662	1.3916000000000002	1.1
830.6023880992881	0.1659333333333333	1.4511999999999998	1.1
830.8007072030564	0.1686666666666666	1.4537333333333333	1.1
831.1165324327364	0.15646666666666662	1.3478666666666668	1.1
831.1165324327364	0.15979999999999994	1.3356000000000001	1.1
831.2145748911132	0.16223333333333328	1.3412	1.1
831.7294704409521	0.16203333333333328	1.3448000000000002	1.1
831.7294470620955	0.16029999999999994	1.275066666666667	1.1
831.7294470620955	0.14863333333333328	1.2410666666666668	1.1
832.2380064517696	0.16889999999999997	1.3597333333333337	1.1
832.2380064517696	0.16889999999999997	1.3818666666666668	1.1
832.6531900716407	0.17199999999999993	1.3848000000000003	1.1
832.6531900716407	0.16999999999999996	1.3848000000000003	1.1
832.6515877432512	0.1765666666666666	1.48	1.1
832.9590171263424	0.17283333333333326	1.4698666666666667	1.1
832.9639287607406	0.17456666666666662	1.4067999999999998	1.1
833.3790734504813	0.1732333333333333	1.4046666666666667	1.1
833.3790734504813	0.18589999999999993	1.3548000000000002	1.1
833.3790734504813	0.1865999999999999	1.4013333333333333	1.1
833.3818957053546	0.18889999999999993	1.4542666666666666	1.1
833.8897611062021	0.19723333333333326	1.3361333333333334	1.1
833.8897611062021	0.19913333333333327	1.1624	1.1
833.9971152186098	0.2125999999999999	1.1696000000000002	1.1
834.3025662459964	0.2125999999999999	1.0797333333333337	1.1
834.3045267952753	0.2261666666666666	1.0797333333333337	1.1
834.3045267952753	0.2296666666666666	1.0372	1.1
834.6307719637227	0.1860999999999999	0.4924000000000001	1.1
834.922359901014	0.15489999999999995	0.1829333333333335	1.1
835.2375807782927	0.14926666666666663	0.10493333333333343	1.1
835.2375807782927	0.1225666666666666	0.0074666666666666735	1.1
835.4418535915598	0.12536666666666663	-0.02426666666666669	1.1
835.6562876434888	0.11146666666666662	-0.03240000000000003	1.1
835.8560975676432	0.1074333333333333	-0.0338666666666667	1.1
835.8560975676432	0.10503333333333328	-0.034266666666666695	1.1
836.0661031596917	0.10503333333333328	-0.034800000000000025	1.1
836.0670469820841	0.11056666666666662	-0.033066666666666696	1.1
836.5838378410637	0.10686666666666662	-0.033066666666666696	1.1
836.5821034876773	0.11273333333333328	-0.03213333333333336	1.1
836.5821034876773	0.10856666666666662	-0.031200000000000026	1.1
836.6856625412361	0.10813333333333328	-0.03280000000000003	1.1
837.1040453353218	0.11743333333333329	-0.03440000000000003	1.1
836.9991097892301	0.10726666666666662	-0.03400000000000003	1.1
836.9991097892301	0.10356666666666663	-0.0334666666666667	1.1
837.3078883734023	0.10306666666666663	-0.03200000000000003	1.1
837.5261693352388	0.10326666666666662	-0.031333333333333366	1.1
837.521223142601	0.1076666666666666	-0.03280000000000003	1.1
837.521223142601	0.1076666666666666	-0.03293333333333336	1.1
838.1445075404597	0.10409999999999996	-0.03293333333333336	1.1
838.2518662770331	0.11486666666666662	-0.0338666666666667	1.1
838.0060276529521	0.1042666666666666	-0.03093333333333336	1.1
838.0060276529521	0.10596666666666661	-0.034266666666666695	1.1
839.0849944101877	0.10506666666666663	-0.03333333333333336	1.1
839.2081232049932	0.10106666666666662	-0.033066666666666696	1.1
839.3996212237023	0.10529999999999996	-0.03333333333333336	1.1
839.3996212237023	0.09783333333333327	-0.032533333333333365	1.1
839.3972699908095	0.10313333333333329	-0.0350666666666667	1.1
839.5047899932794	0.11199999999999993	-0.03440000000000003	1.1
840.1341494335419	0.11199999999999993	-0.03293333333333336	1.1
840.1341494335419	0.10826666666666664	-0.032266666666666693	1.1
840.1341494335419	0.10306666666666663	-0.032266666666666693	1.1
840.6565493000872	0.10663333333333329	-0.033066666666666696	1.1
840.868052625094	0.11179999999999997	-0.035466666666666695	1.1
840.868052625094	0.11059999999999995	-0.03520000000000003	1.1
840.8676536729927	0.10963333333333329	-0.03453333333333337	1.1
841.2871875315825	0.10279999999999995	-0.02973333333333336	1.1
841.2874415010007	0.10883333333333328	-0.031200000000000026	1.1
841.2915078910725	0.10729999999999995	-0.031600000000000024	1.1
841.2915078910725	0.10643333333333328	-0.032533333333333365	1.1
841.3919633613277	0.11093333333333329	-0.0346666666666667	1.1
841.7085828572184	0.11093333333333329	-0.0338666666666667	1.1
842.0245782758731	0.1100333333333333	-0.03440000000000003	1.1
842.0245782758731	0.11529999999999996	-0.03440000000000003	1.1
842.5969548417721	0.10629999999999995	-0.0338666666666667	1.1
842.4487041741032	0.11826666666666663	-0.03520000000000003	1.1
842.9744048846513	0.10546666666666663	-0.03213333333333336	1.1
842.9744048846513	0.11499999999999995	-0.034800000000000025	1.1
843.0750150784376	0.10403333333333328	-0.030666666666666693	1.1
843.3975951352957	0.10709999999999993	-0.03280000000000003	1.1
843.3499703411134	0.10596666666666663	-0.03173333333333336	1.1
843.3499703411134	0.11119999999999995	-0.03400000000000003	1.1
844.1375810518264	0.10886666666666661	-0.03453333333333337	1.1
844.3474443881069	0.10886666666666661	-0.03373333333333336	1.1
844.5543115305005	0.10213333333333328	-0.03373333333333336	1.1
844.5543115305005	0.10903333333333329	-0.03586666666666669	1.1
844.7703556316155	0.11106666666666665	-0.032533333333333365	1.1
844.7709515581151	0.11019999999999996	-0.03413333333333336	1.1
844.7709515581151	0.10943333333333329	-0.0346666666666667	1.1
844.7709515581151	0.11163333333333327	-0.03373333333333336	1.1
844.9821863805579	0.09903333333333329	-0.034800000000000025	1.1
840.8637257083639	0.11219999999999997	-0.033066666666666696	1.1
840.8636935111017	0.10996666666666663	-0.03360000000000003	1.1
840.8636935111017	0.11036666666666661	-0.0350666666666667	1.1
840.3032547490795	0.10429999999999995	-0.03333333333333336	1.1
840.3414681373824	0.10246666666666661	-0.03146666666666669	1.1
839.924081224207	0.10833333333333328	-0.0334666666666667	1.1
839.5086432798379	0.11166666666666662	-0.03533333333333336	1.1
839.5086432798379	0.10869999999999995	-0.0350666666666667	1.1
839.399379687955	0.10563333333333327	-0.03320000000000003	1.1
839.1990272299956	0.10656666666666663	-0.0346666666666667	1.1
838.9795656051817	0.10656666666666663	-0.031600000000000024	1.1
838.9795656051817	0.10639999999999995	-0.0346666666666667	1.1
838.5617084547031	0.10706666666666663	-0.0346666666666667	1.1
838.4576776553797	0.11153333333333329	-0.0346666666666667	1.1
838.4576776553797	0.10349999999999995	-0.0338666666666667	1.1
838.4576776553797	0.10719999999999995	-0.03453333333333337	1.1
837.827174659158	0.1057666666666666	-0.03453333333333337	1.1
837.5611041665604	0.10836666666666664	-0.03413333333333336	1.1
837.5272070289441	0.11036666666666661	-0.0350666666666667	1.1
837.5272070289441	0.10706666666666663	-0.03400000000000003	1.1
837.1077380632737	0.10469999999999996	-0.032533333333333365	1.1
837.0944047004352	0.10969999999999994	-0.034800000000000025	1.1
837.1075541530506	0.10969999999999994	-0.035600000000000034	1.1
837.1075541530506	0.11476666666666661	-0.035600000000000034	1.1
836.7949885442757	0.11249999999999995	-0.03333333333333336	1.1
836.5802590838609	0.10189999999999995	-0.030533333333333357	1.1
836.3792626071548	0.09936666666666663	-0.03360000000000003	1.1
836.3792626071548	0.1147333333333333	-0.0366666666666667	1.1
836.3781833810147	0.10316666666666663	-0.03293333333333336	1.1
836.0635717317944	0.10589999999999995	-0.033066666666666696	1.1
835.8564827853386	0.11026666666666661	-0.0334666666666667	1.1
835.6464369769318	0.10869999999999995	-0.03213333333333336	1.1
835.6464369769318	0.10383333333333328	-0.03240000000000003	1.1
835.3456231247002	0.10383333333333328	-0.031200000000000026	1.1
835.2437336548732	0.11226666666666661	-0.013200000000000012	1.1
835.0254050682067	0.11923333333333327	-0.013200000000000012	1.1
835.0254050682067	0.1236333333333333	0.016800000000000016	1.1
835.0254050682067	0.14159999999999995	0.09200000000000008	1.1
834.7178232938147	0.15843333333333326	0.21893333333333354	1.1
834.3045663484289	0.18463333333333326	0.4417333333333335	1.1
834.3045663484289	0.22953333333333328	1.0488	1.1
834.3089284969174	0.2303999999999999	1.0698666666666667	1.1
833.9877647630328	0.20143333333333327	1.1718666666666668	1.1
833.6907716626581	0.19793333333333327	1.1844000000000001	1.1
833.6907716626581	0.20643333333333327	1.4638666666666666	1.1
833.3793758236151	0.20643333333333327	1.4797333333333331	1.1
833.3768474509845	0.18623333333333328	1.4534666666666665	1.1
832.9640090142626	0.19039999999999993	1.4534666666666665	1.1
832.9640090142626	0.19573333333333326	1.4136	1.1
832.9639998128094	0.18183333333333326	1.4002666666666668	1.1
832.9654542199037	0.18249999999999994	1.4	1.1
832.9654542199037	0.1794666666666666	1.3972000000000002	1.1
832.2383441546981	0.1613666666666666	1.4173333333333333	1.1
832.2383441546981	0.16953333333333329	1.334	1.1
832.1906502190197	0.16729999999999995	1.329866666666667	1.1
832.1906502190197	0.16239999999999996	1.261466666666667	1.1
831.7694778453929	0.15903333333333328	1.2405333333333337	1.1
831.7694778453929	0.15903333333333328	1.3093333333333335	1.1
831.5208175477552	0.15816666666666662	1.48	1.1
831.1187553600777	0.1582666666666666	1.48	1.1
831.116727621857	0.16119999999999995	1.4769333333333332	1.1
831.116727621857	0.15189999999999992	1.3441333333333336	1.1
830.3927519614228	0.15919999999999992	1.336266666666667	1.1
829.9858250893936	0.15446666666666664	1.4022666666666668	1.1
830.0853068729865	0.15859999999999994	1.3990666666666667	1.1
830.0853068729865	0.16309999999999994	1.3893333333333333	1.1
829.4769034129049	0.1615666666666666	1.3986666666666667	1.1
829.3789140069366	0.15459999999999993	1.3576000000000004	1.1
829.4798643943861	0.16393333333333326	1.3530666666666666	1.1
829.4798643943861	0.16393333333333326	1.3293333333333335	1.1
829.3784219642706	0.15723333333333328	1.3326666666666669	1.1
829.2658091056247	0.1615666666666666	1.3326666666666669	1.1
828.8625038912267	0.15299999999999994	1.3152000000000001	1.1
828.8625038912267	0.16853333333333326	1.4328	1.1
828.6573634339758	0.1681666666666666	1.3973333333333335	1.1
828.70908341122	0.16176666666666661	1.3550666666666669	1.1
828.70908341122	0.16053333333333328	1.4021333333333332	1.1
828.0406449016803	0.16336666666666658	1.48	1.1
828.0406449016803	0.17853333333333324	1.5181333333333336	1.1
827.8426610887547	0.1525666666666666	1.4797333333333331	1.1
827.3310990466931	0.16953333333333329	1.3949333333333334	1.1
827.3310990466931	0.16953333333333329	1.3252000000000002	1.1
827.3310990466931	0.16799999999999993	1.3252000000000002	1.1
827.2374036995384	0.16426666666666662	1.349866666666667	1.1
827.2374036995384	0.1575333333333333	1.4178666666666666	1.1
826.5246532977185	0.16526666666666662	1.3278666666666672	1.1
826.5246532977185	0.1589333333333333	1.3200000000000003	1.1
826.4280346654208	0.16139999999999993	1.4542666666666666	1.1
825.7145167020416	0.16629999999999992	1.4024	1.1
825.6175136761327	0.16303333333333328	1.3361333333333334	1.1
825.6175136761327	0.16933333333333328	1.386666666666667	1.1
825.6130696029957	0.16249999999999995	1.3912000000000002	1.1
825.6173740134304	0.1662666666666666	1.4520000000000002	1.1
825.3134381314396	0.1662666666666666	1.4029333333333334	1.1
825.3134381314396	0.1694666666666666	1.4029333333333334	1.1
825.2123463908144	0.16043333333333326	1.3204000000000005	1.1
824.8075494107918	0.15486666666666662	1.2622666666666669	1.1
824.4020713470608	0.1698666666666666	1.327066666666667	1.1
824.4020713470608	0.1675666666666666	1.4537333333333333	1.1
824.4060399529727	0.16539999999999994	1.2605333333333335	1.1
824.4060399529727	0.1644666666666666	1.2670666666666668	1.1
824.0955402167984	0.1730666666666666	1.325066666666667	1.1
823.9009294634898	0.1644333333333333	1.3517333333333337	1.1
823.9009294634898	0.17959999999999993	1.3518666666666668	1.1
823.498578699687	0.17959999999999993	1.48	1.1
823.498509668426	0.17603333333333326	1.48	1.1
822.6953794876298	0.17066666666666663	1.48	1.1
822.6953794876298	0.1827666666666666	1.48	1.1
822.6953794876298	0.17709999999999992	1.3960000000000001	1.1
822.1946034517027	0.1647333333333333	1.237066666666667	1.1
822.1843267192338	0.16919999999999993	1.3205333333333336	1.1
822.1843267192338	0.17559999999999992	1.336666666666667	1.1
821.8924773935481	0.17619999999999994	1.3301333333333336	1.1
821.7917791528789	0.17909999999999993	1.325466666666667	1.1
821.7917791528789	0.17229999999999995	1.312266666666667	1.1
821.7917791528789	0.17603333333333326	1.318266666666667	1.1
821.7918179532727	0.17603333333333326	1.2997333333333336	1.1
821.7914617126056	0.17043333333333327	1.319866666666667	1.1
821.0880746947627	0.17963333333333328	1.319866666666667	1.1
821.0880746947627	0.17763333333333325	1.3906666666666667	1.1
820.9911084558107	0.16999999999999993	1.3952	1.1
820.825125330656	0.18283333333333326	1.3220000000000003	1.1
820.4950272458763	0.18346666666666658	1.3200000000000003	1.1
820.5878080090004	0.17273333333333327	1.3208000000000004	1.1
820.5878080090004	0.17826666666666657	1.354666666666667	1.1
819.7870187981924	0.19019999999999992	1.3808000000000002	1.1
819.8307505688222	0.1861666666666666	1.3854666666666666	1.1
818.6916940116545	0.18973333333333328	1.3212000000000002	1.1
818.6916940116545	0.18973333333333328	1.3206666666666669	1.1
818.5932145297251	0.18233333333333326	1.2444000000000002	1.1
818.5956292474592	0.1764666666666666	1.2444000000000002	1.1
818.5890055917894	0.17479999999999993	1.1601333333333337	1.1
818.5890055917894	0.17273333333333327	1.1606666666666667	1.1
818.2869376637186	0.1849666666666666	1.2493333333333336	1.1
818.2925646647817	0.18349999999999994	1.2400000000000002	1.1
818.1935114089213	0.18086666666666662	1.2588000000000004	1.1
818.1935114089213	0.17973333333333327	1.3233333333333335	1.1
817.795615194213	0.17523333333333327	1.1822666666666668	1.1
817.4892207226965	0.18703333333333327	1.2262666666666668	1.1
817.304648041053	0.1800666666666666	1.2382666666666666	1.1
817.304648041053	0.1845666666666666	1.2413333333333334	1.1
816.9044600291712	0.1845666666666666	1.3186666666666669	1.1
816.9033595064657	0.19139999999999993	1.3216000000000003	1.1
816.2077672899686	0.17923333333333327	1.3216000000000003	1.1
816.2077672899686	0.1854666666666666	1.2153333333333334	1.1
816.2109487645149	0.18433333333333327	1.16	1.1
815.3218997401292	0.1986666666666666	1.3325333333333338	1.1
815.3218997401292	0.19439999999999993	1.3460000000000003	1.1
815.1278311739076	0.18409999999999993	1.2426666666666668	1.1
815.1278311739076	0.1814666666666666	1.1601333333333335	1.1
814.7371312775477	0.19579999999999992	1.3721333333333334	1.1
814.7375673083806	0.19599999999999992	1.4014666666666669	1.1
814.5344860820456	0.19599999999999992	1.4046666666666665	1.1
814.5344860820456	0.20489999999999992	1.4073333333333335	1.1
814.5339698439705	0.20589999999999994	1.4073333333333335	1.1
814.5339698439705	0.19369999999999993	1.3917333333333333	1.1
814.0460928487886	0.19439999999999993	1.2780000000000002	1.1
814.0460928487886	0.1924999999999999	1.2416000000000003	1.1
813.165033359035	0.19589999999999994	1.2729333333333337	1.1
813.1669541749997	0.19393333333333326	1.3973333333333333	1.1
813.1615483868488	0.2035666666666666	1.4026666666666667	1.1
813.1615483868488	0.1926666666666666	1.3885333333333334	1.1
812.8627141285731	0.20426666666666657	1.3441333333333336	1.1
812.6809661778593	0.20463333333333325	1.382666666666667	1.1
812.6809661778593	0.20463333333333325	1.313866666666667	1.1
812.6809661778593	0.19139999999999993	1.1849333333333334	1.1
811.5014782435034	0.1935666666666666	1.1849333333333334	1.1
811.4983876013748	0.18253333333333324	1.1069333333333333	1.1
811.5048934683875	0.19319999999999993	1.1609333333333336	1.1
811.5048934683875	0.18869999999999992	1.1600000000000001	1.1
811.4052527103489	0.18719999999999992	1.3205333333333336	1.1
811.4042474548563	0.20286666666666658	1.3392000000000002	1.1
811.4052475598124	0.20923333333333327	1.3230666666666668	1.1
811.1060065599039	0.19543333333333324	1.3109333333333337	1.1
811.1060065599039	0.20273333333333327	1.3780000000000001	1.1
811.1093395243624	0.20859999999999995	1.4189333333333334	1.1
810.7199863629443	0.20859999999999995	1.3232000000000002	1.1
810.6262079256843	0.20249999999999993	1.3232000000000002	1.1
810.6262079256843	0.19556666666666658	1.233066666666667	1.1
810.2331049211494	0.1955666666666666	1.2988000000000004	1.1
809.4572535814996	0.1850666666666666	1.1633333333333333	1.1
809.4547502292764	0.1976666666666666	1.1928	1.1
809.4547502292764	0.19286666666666663	1.168666666666667	1.1
809.3568252958012	0.19059999999999994	1.1601333333333335	1.1
809.4504481844424	0.19239999999999993	1.16	1.1
809.1578745281216	0.19379999999999992	1.1693333333333336	1.1
809.1578745281216	0.18923333333333328	1.1857333333333335	1.1
808.1941871585111	0.18923333333333328	1.254666666666667	1.1
808.291865576278	0.1888666666666666	1.1673333333333336	1.1
808.1941333116882	0.18546666666666659	1.1794666666666667	1.1
808.1941333116882	0.19233333333333327	1.1794666666666667	1.1
807.9944772801726	0.18449999999999994	1.1601333333333335	1.1
807.9055132930338	0.1861666666666666	1.1626666666666667	1.1
807.8089595940558	0.19349999999999995	1.1697333333333335	1.1
807.8089595940558	0.19003333333333325	1.2406666666666668	1.1
807.8049342544901	0.1974666666666666	1.3200000000000003	1.1
807.4245248583701	0.19449999999999992	1.2488000000000001	1.1
807.4197174287289	0.18166666666666662	1.16	1.1
807.0314166669403	0.18339999999999995	1.1604	1.1
807.0314166669403	0.1903666666666666	1.2897333333333336	1.1
807.0304311154973	0.1903666666666666	1.263066666666667	1.1
806.3630140126893	0.18393333333333325	1.263066666666667	1.1
806.263561224186	0.19069999999999993	1.1865333333333334	1.1
806.263561224186	0.20019999999999993	1.2492000000000003	1.1
806.0748962040947	0.19069999999999993	1.2429333333333337	1.1
805.7798963911802	0.19293333333333326	1.2376000000000003	1.1
804.7204196336703	0.20223333333333327	1.2645333333333337	1.1
804.7204196336703	0.18983333333333327	1.1984000000000004	1.1
804.6301503310875	0.1856333333333333	1.1738666666666668	1.1
804.7227744140059	0.18799999999999992	1.1598666666666668	1.1
804.6281786785273	0.1785666666666666	1.1396000000000002	1.1
804.6281786785273	0.1785666666666666	1.1077333333333332	1.1
804.4386572368619	0.18339999999999995	1.0908	1.1
804.3468091832497	0.1802999999999999	1.0908	1.1
804.3457690785344	0.17583333333333329	1.0912	1.1
804.3457690785344	0.17636666666666662	1.0984	1.1
804.3461660832861	0.1886666666666666	1.1564	1.1
804.150024826305	0.19379999999999994	1.1605333333333336	1.1
803.7658612365312	0.1886666666666666	1.1604	1.1
803.7658612365312	0.19429999999999992	1.2148	1.1
803.4658069420559	0.19133333333333324	1.2022666666666668	1.1
802.7186918699957	0.20413333333333328	1.164266666666667	1.1
802.7201601515803	0.19499999999999992	1.2329333333333337	1.1
802.7201601515803	0.19499999999999992	1.3065333333333335	1.1
802.7222377746396	0.1876666666666666	1.2222666666666668	1.1
802.7222377746396	0.18456666666666657	1.2222666666666668	1.1
801.379231233474	0.18189999999999992	1.0922666666666667	1.1
801.379231233474	0.18633333333333327	1.0805333333333331	1.1
801.1960702886547	0.17659999999999992	1.092	1.1
801.4193931142202	0.18303333333333327	1.1606666666666667	1.1
801.1940800383612	0.1899333333333333	1.2472000000000003	1.1
801.1941216617823	0.19243333333333326	1.3149333333333335	1.1
801.1941216617823	0.19676666666666656	1.2892000000000003	1.1
801.0995678670581	0.18213333333333326	1.0846666666666667	1.1
801.0989038244062	0.18286666666666662	1.0752	1.1
800.8063647795852	0.18286666666666662	1.0792000000000002	1.1
800.8063647795852	0.17466666666666658	1.1550666666666667	1.1
800.4304487565897	0.17753333333333327	1.1550666666666667	1.1
800.4299201897471	0.1778666666666666	1.120666666666667	1.1
800.337124911983	0.1739666666666666	1.1257333333333335	1.1
800.337124911983	0.17903333333333327	1.1030666666666669	1.1
