wavelength(nm)	flourescence PMT(V)	ti_saph Power (V)	Gain (V)
800.8089931154204	0.18006666666666657	1.1568000000000003	1.1
801.0972691227369	0.17629999999999993	1.1213333333333335	1.1
801.0972691227369	0.18153333333333327	1.1213333333333335	1.1
801.0961017113631	0.1792666666666666	1.08	1.1
801.098032488548	0.17446666666666658	1.0806666666666669	1.1
801.1910297492892	0.1786666666666666	1.0806666666666669	1.1
801.1910297492892	0.1886333333333333	1.0864	1.1
801.1930631621902	0.18019999999999994	1.1508	1.1
801.3801281421344	0.19566666666666657	1.1626666666666667	1.1
801.3801274724494	0.16579999999999995	1.0828	1.1
802.3391452273083	0.17229999999999995	1.0856000000000001	1.1
802.3391452273083	0.18533333333333327	1.1576000000000002	1.1
802.72121169491	0.18533333333333327	1.1989333333333336	1.1
802.8112108319364	0.18699999999999994	1.2429333333333334	1.1
802.7201418821684	0.2012666666666666	1.2429333333333334	1.1
802.7201418821684	0.1848666666666666	1.2094666666666667	1.1
803.4834150144242	0.18919999999999995	1.16	1.1
803.9635665069796	0.19023333333333325	1.1694666666666669	1.1
804.0596385461541	0.19203333333333325	1.2409333333333337	1.1
804.0596385461541	0.17409999999999992	1.1608	1.1
804.2500782493742	0.18023333333333327	1.1341333333333334	1.1
804.2500782493742	0.17029999999999995	1.1592000000000002	1.1
804.4387233321102	0.17743333333333325	1.1486666666666667	1.1
804.4387233321102	0.1789999999999999	1.0788000000000002	1.1
804.4371112466314	0.1789999999999999	1.0781333333333336	1.1
804.6281038675359	0.18489999999999993	1.098	1.1
804.4354873731559	0.17223333333333327	1.098	1.1
804.4354873731559	0.18979999999999994	1.1226666666666667	1.1
804.6271745188891	0.18129999999999996	1.1585333333333334	1.1
804.8255556211366	0.18093333333333328	1.1594666666666669	1.1
804.8256067513348	0.19739999999999994	1.2324000000000002	1.1
805.9815654122434	0.18789999999999996	1.2342666666666668	1.1
805.9815654122434	0.1849666666666666	1.1618666666666668	1.1
805.979252000501	0.1910666666666666	1.1608000000000003	1.1
806.0756492614012	0.1971666666666666	1.2693333333333336	1.1
806.0985504700178	0.19883333333333325	1.307066666666667	1.1
806.0985504700178	0.19883333333333325	1.2185333333333335	1.1
807.0348379718866	0.1860666666666666	1.2325333333333335	1.1
807.0348589888237	0.19593333333333324	1.2325333333333335	1.1
807.4206881885403	0.1911666666666666	1.2649333333333337	1.1
807.4206881885403	0.1816666666666666	1.1605333333333336	1.1
807.4220502162909	0.18046666666666658	1.1600000000000001	1.1
807.711681237876	0.18719999999999995	1.16	1.1
807.8119587044987	0.19053333333333328	1.1534666666666666	1.1
807.8119587044987	0.18679999999999994	1.1812	1.1
807.9012000440257	0.19183333333333327	1.2797333333333336	1.1
807.901515719077	0.1946666666666666	1.2536	1.1
807.9033066239828	0.1946666666666666	1.2437333333333336	1.1
807.9033066239828	0.19753333333333326	1.2032	1.1
808.1005842993106	0.19156666666666658	1.2032	1.1
808.1993454868555	0.1899666666666666	1.1802666666666668	1.1
808.2004983537407	0.18823333333333325	1.1606666666666667	1.1
808.2004983537407	0.18436666666666657	1.1601333333333335	1.1
808.193149101255	0.18793333333333326	1.1558666666666666	1.1
808.193149101255	0.18209999999999993	1.1608	1.1
809.4560808798022	0.19569999999999993	1.2665333333333335	1.1
809.4560808798022	0.20156666666666656	1.2814666666666668	1.1
809.4550133570725	0.18269999999999992	1.2228	1.1
809.4508712732174	0.18503333333333324	1.1784000000000003	1.1
810.2342362614658	0.18503333333333324	1.1660000000000001	1.1
810.1391039023075	0.1886666666666666	1.1602666666666668	1.1
810.1391039023075	0.18179999999999993	1.1602666666666668	1.1
810.6248366154298	0.19179999999999992	1.1674666666666667	1.1
810.6251028121026	0.19183333333333327	1.3457333333333334	1.1
810.723133990322	0.19456666666666658	1.3026666666666669	1.1
810.723133990322	0.18573333333333325	1.3028000000000004	1.1
811.1060580882222	0.18276666666666658	1.3098666666666667	1.1
811.1102372271203	0.1963666666666666	1.3350666666666668	1.1
811.6257340605441	0.19219999999999995	1.3430666666666669	1.1
811.6257340605441	0.19103333333333325	1.3186666666666669	1.1
811.30913769762	0.1926666666666666	1.3281333333333336	1.1
811.500242958907	0.1926666666666666	1.2540000000000002	1.1
811.4997084194904	0.19296666666666662	1.1614666666666669	1.1
811.4997084194904	0.18416666666666662	1.1614666666666669	1.1
811.5037977798852	0.18096666666666658	1.1597333333333333	1.1
811.5036753322001	0.18259999999999993	1.16	1.1
811.7986713154563	0.18143333333333325	1.16	1.1
812.6761236291227	0.1829666666666666	1.159866666666667	1.1
812.6761236291227	0.19079999999999994	1.2988000000000004	1.1
812.866192516283	0.19569999999999993	1.3860000000000001	1.1
813.0706818823556	0.1944333333333333	1.2525333333333335	1.1
813.161622950937	0.18379999999999994	1.2437333333333336	1.1
813.161622950937	0.1948666666666666	1.3008000000000002	1.1
813.1615765795964	0.1948666666666666	1.3549333333333333	1.1
813.1615765795964	0.1962333333333333	1.2602666666666669	1.1
814.0461581635598	0.19373333333333326	1.2602666666666669	1.1
814.0461581635598	0.19016666666666662	1.2429333333333334	1.1
814.5314452237735	0.18863333333333324	1.312266666666667	1.1
814.7405423174105	0.19969999999999993	1.3812000000000002	1.1
814.7394588084571	0.1951999999999999	1.3936000000000002	1.1
814.7394588084571	0.18303333333333327	1.4013333333333333	1.1
814.7362260431622	0.18689999999999993	1.4014666666666666	1.1
814.7384865292212	0.19613333333333324	1.4009333333333331	1.1
815.1299796041321	0.1881666666666666	1.3754666666666668	1.1
815.1299796041321	0.1671666666666666	1.16	1.1
815.1343770726422	0.1671666666666666	1.1938666666666669	1.1
815.1343770726422	0.17983333333333326	1.320666666666667	1.1
816.2099968259009	0.18806666666666658	1.320666666666667	1.1
816.2090490537729	0.18649999999999994	1.2913333333333337	1.1
816.2090490537729	0.17443333333333327	1.16	1.1
816.8120202871985	0.17959999999999993	1.16	1.1
816.9086129061837	0.18749999999999992	1.3056000000000003	1.1
817.4035032565042	0.1965999999999999	1.2505333333333335	1.1
817.4035032565042	0.1817666666666666	1.3032000000000001	1.1
817.4914113784483	0.17993333333333328	1.2265333333333337	1.1
817.7930078479224	0.1867666666666666	1.2024000000000001	1.1
818.1979423102412	0.17109999999999995	1.2081333333333335	1.1
818.1979423102412	0.17109999999999995	1.3136	1.1
818.2890823617238	0.1938666666666666	1.2413333333333336	1.1
818.291429774869	0.17963333333333326	1.2413333333333336	1.1
810.4084277008043	0.17473333333333327	1.1605333333333336	1.1
810.4084277008043	0.17193333333333327	1.1728	1.1
818.5943793722847	0.1750333333333333	1.2260000000000002	1.1
818.5896760482153	0.1849666666666666	1.1601333333333335	1.1
818.5896947670657	0.1790666666666666	1.16	1.1
818.5896947670657	0.16903333333333326	1.1602666666666668	1.1
818.6883700899119	0.1808333333333333	1.3326666666666669	1.1
819.7898809376469	0.17236666666666658	1.3224	1.1
819.7892103107753	0.18303333333333327	1.323466666666667	1.1
819.7913361280545	0.18303333333333327	1.2817333333333336	1.1
819.7913361280545	0.17719999999999994	1.2648000000000001	1.1
820.4964132327706	0.17076666666666662	1.2648000000000001	1.1
820.5887486952179	0.17846666666666658	1.3308000000000004	1.1
820.4925846125814	0.17843333333333328	1.3368000000000002	1.1
820.4925846125814	0.17156666666666662	1.3230666666666668	1.1
820.9858784562773	0.17823333333333327	1.3212000000000002	1.1
821.0840399534553	0.1757666666666666	1.3878666666666668	1.1
821.0840399534553	0.17093333333333327	1.4002666666666668	1.1
821.0840399534553	0.1652666666666666	1.370666666666667	1.1
821.7919500673361	0.17189999999999994	1.3913333333333335	1.1
821.7946328107737	0.17589999999999995	1.4004	1.1
821.7946328107737	0.17589999999999995	1.4021333333333332	1.1
821.7946328107737	0.1836666666666666	1.4025333333333334	1.1
821.8895793064671	0.18133333333333326	1.4025333333333334	1.1
822.18655079772	0.16589999999999994	1.3993333333333335	1.1
822.2927269594574	0.1709666666666666	1.3370666666666668	1.1
822.2927269594574	0.1732666666666666	1.3200000000000003	1.1
822.2943095870628	0.16139999999999993	1.239866666666667	1.1
822.2943095870628	0.1622666666666666	1.226266666666667	1.1
823.4962600831234	0.1622666666666666	1.2605333333333335	1.1
823.4962600831234	0.16903333333333326	1.4002666666666668	1.1
823.4962600831234	0.1714999999999999	1.4228	1.1
823.5000478047798	0.1714999999999999	1.3961333333333334	1.1
823.5000478047798	0.17199999999999993	1.3482666666666672	1.1
824.0945907452715	0.16729999999999995	1.3482666666666672	1.1
824.0945907452715	0.1696666666666666	1.3249333333333335	1.1
824.302831641135	0.16819999999999993	1.3217333333333336	1.1
824.4019141238102	0.16426666666666662	1.2989333333333337	1.1
824.4019141238102	0.15546666666666661	1.2470666666666668	1.1
824.4019141238102	0.1630666666666666	1.2816000000000005	1.1
824.9104523818876	0.16669999999999996	1.4249333333333334	1.1
824.9104523818876	0.15783333333333327	1.324266666666667	1.1
825.3099552065796	0.15709999999999993	1.2924000000000002	1.1
825.3099552065796	0.16899999999999996	1.3686666666666667	1.1
825.3137627942256	0.16899999999999996	1.4454666666666667	1.1
825.6184650530085	0.17459999999999995	1.4473333333333334	1.1
825.7114542175067	0.16173333333333328	1.4473333333333334	1.1
825.7114542175067	0.1620666666666666	1.3982666666666668	1.1
825.7159735238075	0.1648333333333333	1.3325333333333338	1.1
826.1198523722665	0.15713333333333326	1.3173333333333337	1.1
826.4268549821487	0.1644666666666666	1.4381333333333333	1.1
826.4268549821487	0.16953333333333329	1.4842666666666666	1.1
826.4295368668496	0.16349999999999995	1.4685333333333332	1.1
826.4295368668496	0.15413333333333326	1.3261333333333336	1.1
827.3362800640215	0.1578333333333333	1.342266666666667	1.1
827.3405894257997	0.16336666666666658	1.3273333333333335	1.1
827.3405894257997	0.16336666666666658	1.3200000000000003	1.1
827.3406257890526	0.15716666666666662	1.304266666666667	1.1
827.8430754157126	0.1490333333333333	1.304266666666667	1.1
827.9416273636949	0.15286666666666662	1.3057333333333339	1.1
827.9416273636949	0.1537666666666666	1.3585333333333338	1.1
828.0464246669925	0.16949999999999993	1.4562666666666666	1.1
828.5633548155545	0.16923333333333326	1.48	1.1
828.5592483856535	0.1648666666666666	1.4849333333333332	1.1
828.5592483856535	0.16549999999999992	1.418	1.1
828.5601603019176	0.16209999999999994	1.3365333333333334	1.1
829.2677350372524	0.16909999999999994	1.4493333333333331	1.1
829.2655046186295	0.16096666666666662	1.3257333333333334	1.1
829.2655046186295	0.16096666666666662	1.3685333333333336	1.1
829.2655046186295	0.16563333333333327	1.3376000000000003	1.1
829.479735579649	0.15629999999999997	1.3376000000000003	1.1
829.4769031490142	0.1592666666666666	1.324	1.1
829.8959162631693	0.1628666666666666	1.320666666666667	1.1
829.8959162631693	0.16776666666666662	1.3701333333333336	1.1
829.9910503515333	0.15813333333333326	1.3709333333333336	1.1
829.9910503515333	0.15893333333333326	1.3837333333333335	1.1
831.1191776700019	0.1688666666666666	1.4764	1.1
831.1191776700019	0.16309999999999994	1.4146666666666665	1.1
831.1191954613329	0.16196666666666662	1.3206666666666669	1.1
831.2173007698885	0.16689999999999994	1.366666666666667	1.1
831.528574101231	0.16689999999999994	1.4777333333333331	1.1
831.528574101231	0.1586666666666666	1.4096	1.1
831.7255601275555	0.16436666666666663	1.4096	1.1
831.7255601275555	0.15663333333333326	1.3120000000000003	1.1
832.5512990799073	0.16396666666666662	1.2629333333333337	1.1
832.5512990799073	0.1681666666666666	1.4004	1.1
832.5512990799073	0.16393333333333326	1.3281333333333336	1.1
832.6493987868757	0.1619333333333333	1.4089333333333331	1.1
832.7515261238002	0.17899999999999994	1.4736	1.1
832.7515261238002	0.18593333333333326	1.4097333333333333	1.1
832.9635848415859	0.17043333333333327	1.4	1.1
833.3757080708816	0.1786666666666666	1.3645333333333336	1.1
833.3669169384546	0.1786666666666666	1.3344000000000003	1.1
833.3767830611354	0.18269999999999992	1.3280000000000003	1.1
833.3767830611354	0.19529999999999995	1.3280000000000003	1.1
833.8852595720475	0.1981666666666666	1.1700000000000002	1.1
833.8911603741558	0.20539999999999992	1.0861333333333334	1.1
834.2030572629106	0.20083333333333325	1.1214666666666668	1.1
834.2030572629106	0.23156666666666662	1.1070666666666669	1.1
834.5172746451849	0.2244666666666666	1.0736	1.1
834.8194962630857	0.18886666666666657	0.44866666666666677	1.1
834.9226946856493	0.16053333333333328	0.22986666666666689	1.1
834.9226946856493	0.14193333333333327	0.12293333333333344	1.1
835.033231694897	0.12273333333333329	0.0398666666666667	1.1
835.3386798278323	0.12273333333333329	0.01813333333333335	1.1
835.3386798278323	0.12433333333333328	-0.021066666666666685	1.1
835.3386798278323	0.10926666666666662	-0.021066666666666685	1.1
835.6475212752881	0.11073333333333328	-0.03320000000000003	1.1
836.0609401808186	0.11436666666666663	-0.035600000000000034	1.1
836.3781539818087	0.10413333333333329	-0.03440000000000003	1.1
836.5413663515654	0.10716666666666663	-0.03266666666666669	1.1
836.5413663515654	0.09823333333333328	-0.03200000000000003	1.1
836.5831411118481	0.10799999999999994	-0.03453333333333337	1.1
836.7922527491097	0.1033666666666666	-0.03266666666666669	1.1
836.7980171995322	0.11583333333333329	-0.034800000000000025	1.1
836.7980171995322	0.10869999999999995	-0.03520000000000003	1.1
837.1034092099964	0.10869999999999995	-0.032266666666666693	1.1
837.4138647782778	0.10199999999999995	-0.03400000000000003	1.1
837.5224606824548	0.10169999999999994	-0.03400000000000003	1.1
837.5224606824548	0.10626666666666663	-0.0350666666666667	1.1
837.7311192087526	0.10046666666666662	-0.0346666666666667	1.1
838.1451987410628	0.10596666666666661	-0.034933333333333365	1.1
838.1463509455015	0.10529999999999995	-0.0334666666666667	1.1
838.1463509455015	0.10656666666666662	-0.03360000000000003	1.1
838.2518941369149	0.09986666666666662	-0.03200000000000003	1.1
838.2520809118199	0.1086666666666666	-0.034933333333333365	1.1
839.1953287008367	0.11069999999999995	-0.03293333333333336	1.1
839.1953287008367	0.10396666666666662	-0.03400000000000003	1.1
838.9824168711222	0.10396666666666662	-0.03360000000000003	1.1
839.5034736717153	0.10699999999999996	-0.0338666666666667	1.1
839.2885989186761	0.10396666666666661	-0.0338666666666667	1.1
839.2885989186761	0.10873333333333328	-0.03280000000000003	1.1
839.2885989186761	0.10586666666666661	-0.03333333333333336	1.1
840.3400675553496	0.10036666666666662	-0.03280000000000003	1.1
840.4430873070762	0.10773333333333329	-0.03293333333333336	1.1
840.8631738019476	0.11539999999999996	-0.0350666666666667	1.1
840.8631738019476	0.10763333333333329	-0.031333333333333366	1.1
840.6600076293863	0.10376666666666663	-0.03360000000000003	1.1
840.8627173270078	0.11499999999999995	-0.03413333333333336	1.1
841.2847146921498	0.10599999999999994	-0.03453333333333337	1.1
841.2847146921498	0.10599999999999994	-0.03213333333333336	1.1
841.2847146921498	0.10576666666666662	-0.031200000000000026	1.1
841.3918863328187	0.09989999999999996	-0.031200000000000026	1.1
841.7036313014302	0.10723333333333329	-0.034800000000000025	1.1
841.7036313014302	0.11506666666666661	-0.034266666666666695	1.1
841.813046937496	0.10539999999999994	-0.0334666666666667	1.1
842.2270636294879	0.10106666666666662	-0.03093333333333336	1.1
842.3318947616481	0.10263333333333328	-0.03213333333333336	1.1
842.7580201057061	0.10556666666666663	-0.03293333333333336	1.1
842.7580201057061	0.1029333333333333	-0.03146666666666669	1.1
842.4473132740172	0.10476666666666662	-0.03266666666666669	1.1
842.4473132740172	0.10156666666666661	-0.03280000000000003	1.1
843.1797424061024	0.10156666666666661	-0.035466666666666695	1.1
843.1797424061024	0.10693333333333328	-0.03573333333333337	1.1
843.3884900628158	0.11113333333333329	-0.03573333333333337	1.1
843.6065222498113	0.10649999999999996	-0.0338666666666667	1.1
844.3455334132109	0.10716666666666662	-0.0338666666666667	1.1
844.3455334132109	0.10803333333333327	-0.034800000000000025	1.1
844.3005093982172	0.09876666666666661	-0.03266666666666669	1.1
844.6597040487752	0.1097333333333333	-0.03373333333333336	1.1
844.6628705464717	0.10803333333333327	-0.034933333333333365	1.1
844.6628705464717	0.10663333333333329	-0.0346666666666667	1.1
844.9813476465993	0.10686666666666662	-0.032533333333333365	1.1
844.9839591470428	0.10773333333333329	-0.033066666666666696	1.1
844.9840219324685	0.10773333333333329	-0.03320000000000003	1.1
844.9840219324685	0.1097333333333333	-0.03320000000000003	1.1
843.031522466171	0.11106666666666662	-0.03360000000000003	1.1
842.9790245418994	0.10546666666666663	-0.035466666666666695	1.1
842.9790245418994	0.10546666666666663	-0.03280000000000003	1.1
842.9789536728639	0.10369999999999994	-0.03280000000000003	1.1
842.6495879326417	0.09559999999999995	-0.03146666666666669	1.1
842.4503964346568	0.10493333333333328	-0.03400000000000003	1.1
842.4503964346568	0.11019999999999996	-0.03533333333333336	1.1
842.4991197488692	0.1076666666666666	-0.03213333333333336	1.1
841.8069850760171	0.10963333333333329	-0.034800000000000025	1.1
841.6036576697521	0.10029999999999996	-0.03320000000000003	1.1
841.6036576697521	0.11346666666666662	-0.03453333333333337	1.1
841.5408607971711	0.10683333333333328	-0.033066666666666696	1.1
841.2876748882614	0.10333333333333329	-0.030666666666666693	1.1
841.2890858446228	0.11049999999999995	-0.032266666666666693	1.1
841.2890858446228	0.11049999999999995	-0.03320000000000003	1.1
840.867379330104	0.10079999999999996	-0.03320000000000003	1.1
840.8641300456402	0.10093333333333329	-0.033066666666666696	1.1
840.8647140370779	0.11139999999999996	-0.032266666666666693	1.1
840.8647140370779	0.11083333333333328	-0.03440000000000003	1.1
840.5445982355375	0.10379999999999995	-0.036800000000000034	1.1
840.3426042814455	0.10729999999999995	-0.033066666666666696	1.1
839.9162041203531	0.10429999999999995	-0.03266666666666669	1.1
839.4024109105515	0.1054333333333333	-0.03413333333333336	1.1
839.4024109105515	0.10913333333333329	-0.03320000000000003	1.1
839.2920979151902	0.10709999999999996	-0.033066666666666696	1.1
839.40138090802	0.10709999999999996	-0.035466666666666695	1.1
839.0820903315249	0.1075333333333333	-0.034800000000000025	1.1
839.0820903315249	0.11016666666666661	-0.034800000000000025	1.1
838.5613682237537	0.10976666666666664	-0.03533333333333336	1.1
838.2482025144684	0.10729999999999995	-0.03413333333333336	1.1
838.1479420727335	0.10659999999999996	-0.032533333333333365	1.1
838.1479420727335	0.1016333333333333	-0.0334666666666667	1.1
837.7311575437535	0.10169999999999996	-0.03453333333333337	1.1
837.7291738668106	0.10613333333333329	-0.034933333333333365	1.1
837.5264574959217	0.10096666666666662	-0.034933333333333365	1.1
837.5264574959217	0.10489999999999998	-0.03586666666666669	1.1
837.110017035082	0.10403333333333328	-0.034800000000000025	1.1
837.1059427392858	0.10403333333333328	-0.0338666666666667	1.1
836.7886441485475	0.10829999999999997	-0.03453333333333337	1.1
836.6855950130818	0.10659999999999997	-0.03453333333333337	1.1
836.6855950130818	0.10953333333333329	-0.03360000000000003	1.1
836.5748061202574	0.11226666666666661	-0.0350666666666667	1.1
836.5805766061043	0.10539999999999995	-0.034266666666666695	1.1
836.0676672973569	0.11106666666666662	-0.03173333333333336	1.1
836.0676672973569	0.10609999999999994	-0.03586666666666669	1.1
836.0677624040532	0.11083333333333328	-0.0338666666666667	1.1
835.7475029306813	0.10363333333333329	-0.03440000000000003	1.1
835.6443714343764	0.10903333333333329	-0.0362666666666667	1.1
835.6443714343764	0.10753333333333327	-0.03213333333333336	1.1
835.1464049544566	0.10753333333333327	-0.006933333333333339	1.1
834.9237626157111	0.12626666666666664	0.011866666666666676	1.1
835.238409560972	0.12443333333333328	0.011866666666666676	1.1
835.238409560972	0.14409999999999995	0.07346666666666674	1.1
834.7187363816361	0.14923333333333327	0.1621333333333335	1.1
834.6163640604739	0.16989999999999994	0.2885333333333334	1.1
834.300861184189	0.2023999999999999	0.7670666666666667	1.1
834.300861184189	0.22459999999999988	1.0665333333333336	1.1
834.3016318637897	0.22059999999999994	1.0801333333333334	1.1
833.8926123764397	0.20833333333333323	1.1670666666666667	1.1
833.8899304501665	0.1896666666666666	1.1594666666666669	1.1
833.4742414925994	0.18479999999999994	1.1678666666666666	1.1
833.4742414925994	0.18479999999999994	1.3680000000000003	1.1
833.3817896103302	0.18343333333333325	1.3997333333333333	1.1
833.377762852167	0.19313333333333327	1.3997333333333333	1.1
832.9622220313937	0.1892666666666666	1.4025333333333334	1.1
832.9622220313937	0.17079999999999992	1.4017333333333333	1.1
833.0576225242667	0.17699999999999994	1.4	1.1
832.6968207193986	0.16229999999999994	1.3260000000000003	1.1
832.5465837725754	0.17359999999999995	1.3326666666666669	1.1
832.5465837725754	0.16183333333333327	1.3201333333333336	1.1
832.2440081311311	0.16023333333333328	1.3666666666666667	1.1
831.7285825506107	0.1623333333333333	1.3189333333333335	1.1
831.728712508784	0.1608666666666666	1.2400000000000002	1.1
831.728712508784	0.1608666666666666	1.2433333333333336	1.1
831.2182533578479	0.15286666666666662	1.4622666666666666	1.1
831.219600754239	0.16233333333333327	1.4622666666666666	1.1
831.219600754239	0.15479999999999994	1.4802666666666664	1.1
831.116607282071	0.16683333333333328	1.4461333333333333	1.1
831.116607282071	0.15936666666666663	1.3800000000000001	1.1
830.3984794461427	0.1695666666666666	1.4137333333333333	1.1
829.9857189449012	0.16919999999999993	1.48	1.1
829.9959059367637	0.15749999999999995	1.3989333333333334	1.1
829.9959059367637	0.15799999999999992	1.3974666666666666	1.1
829.5762461916042	0.15426666666666664	1.4060000000000001	1.1
829.5772733513141	0.15959999999999994	1.3664000000000003	1.1
829.4799033460096	0.15959999999999994	1.3469333333333335	1.1
829.4799033460096	0.15846666666666662	1.3817333333333335	1.1
829.2668112693849	0.15696666666666662	1.3817333333333335	1.1
829.2657820246853	0.16283333333333327	1.3274666666666668	1.1
829.2657820246853	0.16699999999999993	1.332266666666667	1.1
829.2657820246853	0.16436666666666663	1.4487999999999999	1.1
828.5602158955852	0.15999999999999995	1.4045333333333334	1.1
828.2503078101801	0.17059999999999992	1.4477333333333333	1.1
828.0474293227878	0.16119999999999995	1.4759999999999998	1.1
828.0474293227878	0.16389999999999996	1.4812	1.1
828.0430706481286	0.16043333333333326	1.5182666666666667	1.1
827.7534119186	0.15979999999999994	1.48	1.1
827.7534119186	0.15979999999999994	1.3876000000000004	1.1
827.3352705009873	0.1637333333333333	1.3206666666666669	1.1
827.3352705009873	0.15666666666666662	1.3206666666666669	1.1
826.9295441561286	0.15739999999999996	1.335866666666667	1.1
826.8350134690886	0.16773333333333326	1.3816000000000002	1.1
826.4290892639715	0.15103333333333327	1.336266666666667	1.1
826.4290892639715	0.1661666666666666	1.4066666666666667	1.1
826.4301170022366	0.17583333333333329	1.4810666666666668	1.1
825.7138289814308	0.1645666666666666	1.3484000000000003	1.1
825.7124145141979	0.1644333333333333	1.3308	1.1
825.7124145141979	0.15953333333333328	1.3885333333333334	1.1
825.6185757772671	0.1706666666666666	1.4196	1.1
825.3108425438421	0.1706666666666666	1.4550666666666665	1.1
825.308880835093	0.1758666666666666	1.385066666666667	1.1
825.308880835093	0.16233333333333327	1.385066666666667	1.1
825.213313624189	0.1598666666666666	1.301866666666667	1.1
824.8079916577188	0.16013333333333327	1.3009333333333337	1.1
824.8079916577188	0.1683666666666666	1.4788	1.1
824.3059798590289	0.16559999999999994	1.3977333333333335	1.1
824.3059798590289	0.16599999999999995	1.2944000000000002	1.1
824.3017625134909	0.1534666666666666	1.3293333333333335	1.1
824.3017625134909	0.17423333333333327	1.4642666666666666	1.1
823.5012826569074	0.17609999999999995	1.4461333333333333	1.1
823.5012826569074	0.17656666666666662	1.4098666666666668	1.1
823.5012826569074	0.17656666666666662	1.48	1.1
823.4956281570115	0.17009999999999995	1.48	1.1
822.2899604994325	0.17219999999999994	1.48	1.1
822.2899604994325	0.16969999999999993	1.3561333333333334	1.1
822.1952041102265	0.16576666666666662	1.237466666666667	1.1
822.1898550379185	0.16339999999999993	1.3160000000000003	1.1
821.9844761448179	0.17509999999999992	1.3201333333333336	1.1
821.9844761448179	0.1747666666666666	1.3590666666666669	1.1
821.7907252935103	0.17466666666666658	1.4018666666666666	1.1
821.8901159734954	0.1693666666666666	1.3986666666666667	1.1
821.7938314146284	0.1836666666666666	1.3702666666666667	1.1
821.5865406467533	0.17263333333333325	1.3209333333333335	1.1
821.5865406467533	0.17263333333333325	1.3764000000000003	1.1
821.0841940534797	0.17046666666666663	1.4089333333333334	1.1
820.7804813788049	0.17359999999999992	1.4089333333333334	1.1
820.6860143867547	0.17403333333333326	1.3892000000000002	1.1
820.6860143867547	0.1712666666666666	1.3208000000000002	1.1
820.5851523776529	0.17046666666666663	1.3290666666666668	1.1
819.7931388494397	0.17996666666666658	1.370666666666667	1.1
819.7913500601103	0.16849999999999996	1.2888000000000004	1.1
819.7913500601103	0.17026666666666662	1.315066666666667	1.1
819.692349071692	0.18133333333333326	1.3780000000000001	1.1
818.3662369757026	0.17009999999999995	1.3045333333333338	1.1
818.5948151380376	0.16836666666666658	1.175866666666667	1.1
818.5948151380376	0.16836666666666658	1.1769333333333334	1.1
818.5949850733988	0.17436666666666661	1.16	1.1
818.5927882330342	0.17549999999999996	1.16	1.1
818.5927657191594	0.16816666666666663	1.1758666666666668	1.1
818.5927657191594	0.16859999999999994	1.2392	1.1
817.9718264191723	0.1696999999999999	1.225866666666667	1.1
817.9718264191723	0.17433333333333328	1.2376000000000003	1.1
818.2846899535122	0.17523333333333327	1.2437333333333336	1.1
817.7975420921622	0.17679999999999996	1.2553333333333334	1.1
817.7975420921622	0.16806666666666661	1.1748000000000003	1.1
817.4904200262359	0.17809999999999993	1.2357333333333336	1.1
817.4967854799462	0.1855666666666666	1.2417333333333336	1.1
816.9086532501723	0.1855666666666666	1.2994666666666668	1.1
816.9086532501723	0.18503333333333324	1.2994666666666668	1.1
816.9056248655894	0.17903333333333327	1.319866666666667	1.1
816.2113120485027	0.18073333333333325	1.3193333333333335	1.1
816.209840000511	0.1766999999999999	1.1601333333333335	1.1
816.209840000511	0.1783333333333333	1.16	1.1
816.209840000511	0.1947666666666666	1.3593333333333335	1.1
815.128974181491	0.1849666666666666	1.3734666666666668	1.1
815.1331822048022	0.17639999999999995	1.1636000000000002	1.1
815.1331822048022	0.1791666666666666	1.16	1.1
814.7413877943573	0.19849999999999993	1.3396000000000003	1.1
814.7409375596744	0.21253333333333327	1.4020000000000001	1.1
814.7409508857988	0.21253333333333327	1.4018666666666666	1.1
814.7409508857988	0.18899999999999995	1.4018666666666666	1.1
814.7419995895588	0.1877666666666666	1.4028	1.1
814.5354055778153	0.18043333333333328	1.3929333333333334	1.1
814.5354055778153	0.19793333333333327	1.3484000000000003	1.1
814.0445287041849	0.1827666666666666	1.2416000000000003	1.1
814.0445287041849	0.18769999999999992	1.2448000000000001	1.1
813.0697137847989	0.18553333333333327	1.251866666666667	1.1
813.1649709089197	0.19753333333333326	1.2928000000000002	1.1
811.8745716319944	0.1934333333333333	1.2610666666666668	1.1
811.8745716319944	0.1856666666666666	1.3057333333333336	1.1
812.6750639327064	0.19733333333333325	1.3844	1.1
811.7968969370356	0.19733333333333325	1.3172000000000004	1.1
811.5029918927377	0.1926666666666666	1.3172000000000004	1.1
811.5029918927377	0.18609999999999996	1.1602666666666668	1.1
811.5031766754976	0.1684333333333333	1.159866666666667	1.1
811.498478042106	0.17263333333333325	1.1617333333333335	1.1
811.4043600772395	0.18843333333333323	1.237066666666667	1.1
811.4043600772395	0.19039999999999993	1.3092000000000004	1.1
811.4051530946758	0.20083333333333328	1.3696000000000004	1.1
811.4051530946758	0.19513333333333327	1.337866666666667	1.1
811.2019972106018	0.2014666666666666	1.3233333333333335	1.1
811.2019972106018	0.2001666666666666	1.3418666666666668	1.1
811.1051056932278	0.2001666666666666	1.3977333333333335	1.1
810.7232018642754	0.2049666666666666	1.3780000000000001	1.1
810.627275629985	0.19513333333333327	1.3780000000000001	1.1
810.6272625223446	0.2086999999999999	1.300266666666667	1.1
810.6272625223446	0.19909999999999994	1.327866666666667	1.1
810.2353022896261	0.18036666666666662	1.1617333333333337	1.1
809.4549500854143	0.1836666666666666	1.1594666666666669	1.1
809.4549500854143	0.1818666666666666	1.1604	1.1
809.4549500854143	0.19319999999999993	1.1601333333333335	1.1
809.5495858352427	0.18709999999999993	1.16	1.1
809.4532164978028	0.19613333333333324	1.16	1.1
808.1951127048332	0.18543333333333328	1.1804000000000001	1.1
808.1951127048332	0.18543333333333328	1.1608000000000003	1.1
808.1981749922197	0.18339999999999995	1.1598666666666668	1.1
808.1941054461337	0.18976666666666658	1.1598666666666668	1.1
808.1040807127056	0.19083333333333324	1.16	1.1
808.1040807127056	0.19109999999999994	1.2337333333333336	1.1
807.9033805481791	0.19526666666666662	1.1605333333333334	1.1
807.8058035679779	0.19013333333333327	1.1937333333333333	1.1
807.7160744592705	0.18646666666666661	1.240266666666667	1.1
807.7160744592705	0.20119999999999993	1.317866666666667	1.1
807.7178043109718	0.1934666666666666	1.2897333333333336	1.1
807.4197095035801	0.18456666666666657	1.16	1.1
807.3247194123072	0.17846666666666658	1.1589333333333336	1.1
806.9380747920218	0.17846666666666658	1.1770666666666667	1.1
806.9380747920218	0.1863666666666666	1.1809333333333334	1.1
806.6449978635477	0.19373333333333329	1.1809333333333334	1.1
806.0765211337465	0.18799999999999994	1.1782666666666668	1.1
806.0766206510766	0.19683333333333325	1.207066666666667	1.1
806.0766206510766	0.19376666666666661	1.2038666666666669	1.1
805.9815327317874	0.1874666666666666	1.1922666666666668	1.1
804.8227159877082	0.19493333333333326	1.1660000000000001	1.1
804.8203407658048	0.18573333333333325	1.1641333333333335	1.1
804.8203407658048	0.19473333333333326	1.19	1.1
804.6281155906596	0.18956666666666658	1.1597333333333335	1.1
804.6261447273282	0.17673333333333327	1.1544	1.1
804.4379051641542	0.18016666666666661	1.1026666666666667	1.1
804.4379051641542	0.18016666666666661	1.0936000000000001	1.1
804.2418620829967	0.18019999999999994	1.1341333333333334	1.1
804.3427674681215	0.18379999999999994	1.1341333333333334	1.1
804.0119797945365	0.18873333333333325	1.1436000000000002	1.1
804.0119797945365	0.18183333333333326	1.16	1.1
804.0119797945365	0.18146666666666658	1.207466666666667	1.1
803.6717469110287	0.19129999999999991	1.235466666666667	1.1
803.3784501617997	0.18959999999999994	1.1724	1.1
802.7211657517956	0.19083333333333324	1.1604	1.1
802.7211657517956	0.1890999999999999	1.1616	1.1
802.7160691257887	0.19779999999999992	1.2702666666666669	1.1
802.717151529625	0.19406666666666658	1.303866666666667	1.1
802.3388761242553	0.19406666666666658	1.2182666666666668	1.1
802.3388761242553	0.19063333333333327	1.1061333333333334	1.1
801.3775526635309	0.18483333333333327	1.1061333333333334	1.1
801.3913749929845	0.18843333333333326	1.0945333333333334	1.1
801.282110080421	0.1772666666666666	1.1013333333333335	1.1
801.282110080421	0.18833333333333324	1.1598666666666668	1.1
801.1898424641935	0.18683333333333327	1.2086666666666668	1.1
801.1906575390951	0.19306666666666658	1.2396000000000003	1.1
801.1908127981951	0.18586666666666662	1.2328000000000001	1.1
801.1908127981951	0.1683666666666666	1.1258666666666666	1.1
801.0988353172452	0.17803333333333327	1.0798666666666668	1.1
800.9067958115774	0.17406666666666662	1.0741333333333334	1.1
800.9069239409738	0.17406666666666662	1.0756000000000001	1.1
800.8077795886068	0.17609999999999992	1.0784	1.1
800.8077795886068	0.16339999999999993	1.0784	1.1
800.5211782070132	0.18293333333333328	1.1494666666666669	1.1
800.5211782070132	0.17993333333333328	1.1445333333333334	1.1
