wavelength(nm)	flourescence PMT(V)	ti_saph Power (V)	Gain (V)
800.8086968582188	0.18389999999999992	1.1596	1.1
800.8086968582188	0.18143333333333325	1.0968	1.1
801.0986679497205	0.17863333333333328	1.0968	1.1
801.0995158214704	0.1810666666666666	1.0800000000000003	1.1
801.1941623552275	0.17933333333333326	1.0836	1.1
801.1941623552275	0.1793666666666666	1.16	1.1
801.3771318485282	0.18806666666666663	1.1913333333333336	1.1
801.3771318485282	0.17949999999999994	1.1528	1.1
802.3383194954151	0.17886666666666662	1.0809333333333335	1.1
802.7223656742713	0.1867666666666666	1.1073333333333335	1.1
802.7223656742713	0.1846666666666666	1.1601333333333335	1.1
802.7212611941301	0.19683333333333328	1.2500000000000002	1.1
802.7222477782822	0.19683333333333328	1.319866666666667	1.1
802.7222113224173	0.1909666666666666	1.3200000000000003	1.1
802.7222113224173	0.1939666666666666	1.3200000000000003	1.1
803.4854985462003	0.18829999999999994	1.2298666666666669	1.1
803.7701010041874	0.19326666666666661	1.1608	1.1
804.016663642644	0.1853666666666666	1.239866666666667	1.1
804.016663642644	0.19309999999999994	1.1856000000000002	1.1
804.2488925500951	0.18079999999999993	1.1317333333333335	1.1
804.246885982226	0.18003333333333327	1.1569333333333334	1.1
804.4369918124851	0.17886666666666662	1.1600000000000001	1.1
804.4369918124851	0.18079999999999993	1.1333333333333335	1.1
804.4370315071092	0.17273333333333327	1.0793333333333335	1.1
804.4386696871215	0.17273333333333327	1.0905333333333331	1.1
804.7190490144036	0.17583333333333329	1.142266666666667	1.1
804.7190490144036	0.18359999999999996	1.142266666666667	1.1
804.6302047491914	0.1858666666666666	1.1577333333333335	1.1
804.8254459851493	0.1935666666666666	1.1905333333333337	1.1
805.873911012896	0.19109999999999994	1.2376000000000003	1.1
805.873911012896	0.19563333333333327	1.16	1.1
805.9837050773491	0.1944666666666666	1.1618666666666668	1.1
805.9732064065839	0.1912666666666666	1.2097333333333335	1.1
806.9989822744509	0.1936666666666666	1.2436	1.1
806.9989822744509	0.18819999999999992	1.2237333333333336	1.1
807.0320748916874	0.1830666666666666	1.1717333333333335	1.1
807.1243639470557	0.1830666666666666	1.2448000000000004	1.1
807.4220084979671	0.18789999999999993	1.1668000000000003	1.1
807.4220084979671	0.1831666666666666	1.1668000000000003	1.1
807.4206578683351	0.18399999999999994	1.16	1.1
807.4206578683351	0.1811666666666666	1.1597333333333335	1.1
807.8047141310622	0.19273333333333326	1.1598666666666668	1.1
807.8047141310622	0.19013333333333327	1.2545333333333335	1.1
807.9035359671315	0.19459999999999994	1.2817333333333336	1.1
807.8992577621123	0.1928666666666666	1.246666666666667	1.1
808.0106182120156	0.19973333333333324	1.2238666666666669	1.1
808.0106182120156	0.19239999999999996	1.1946666666666668	1.1
808.1041464123957	0.19849999999999993	1.2368000000000003	1.1
808.1941180336448	0.19849999999999993	1.1601333333333337	1.1
808.1941208548195	0.18393333333333325	1.154266666666667	1.1
808.1941262351382	0.18456666666666657	1.154266666666667	1.1
808.1941262351382	0.1833666666666666	1.1552	1.1
809.4549021334739	0.1842666666666666	1.2328000000000001	1.1
809.4582363558309	0.19173333333333328	1.270666666666667	1.1
809.4582363558309	0.19219999999999995	1.236666666666667	1.1
809.4582363558309	0.19239999999999993	1.2078666666666666	1.1
809.4537963473633	0.18913333333333326	1.1621333333333335	1.1
810.2342646092254	0.1905666666666666	1.1618666666666668	1.1
810.6280925225776	0.17943333333333325	1.1656000000000002	1.1
810.6280925225776	0.19376666666666661	1.2860000000000003	1.1
810.6262157648569	0.19376666666666661	1.2905333333333335	1.1
810.7168617044272	0.19663333333333324	1.2381333333333335	1.1
811.1123934354238	0.19523333333333326	1.2381333333333335	1.1
811.1123934354238	0.18849999999999995	1.3069333333333337	1.1
811.3028606233719	0.19803333333333328	1.3214666666666668	1.1
811.3042673263234	0.20549999999999996	1.2510666666666668	1.1
811.4074767497162	0.19073333333333325	1.279066666666667	1.1
811.4074767497162	0.19553333333333325	1.3704000000000003	1.1
811.4074767497162	0.20196666666666657	1.384	1.1
811.4032810850825	0.19839999999999994	1.355066666666667	1.1
811.4993413019216	0.18779999999999994	1.2393333333333336	1.1
811.4993413019216	0.1888666666666666	1.1622666666666668	1.1
811.5048459696675	0.1888666666666666	1.16	1.1
811.8966188137941	0.17826666666666657	1.16	1.1
811.8867958945697	0.18749999999999992	1.16	1.1
811.8867958945697	0.18623333333333328	1.1612000000000002	1.1
812.8713740009687	0.19463333333333324	1.3808	1.1
813.0683567576181	0.19673333333333326	1.3168000000000002	1.1
813.1605384952488	0.18719999999999995	1.2633333333333336	1.1
813.1638305721402	0.1943666666666666	1.2989333333333335	1.1
813.1638305721402	0.19509999999999994	1.3212000000000002	1.1
813.1638305721402	0.18826666666666658	1.312266666666667	1.1
813.1638305721402	0.18773333333333325	1.2420000000000002	1.1
814.5390601330623	0.18673333333333325	1.2405333333333337	1.1
814.5390601330623	0.18673333333333325	1.3213333333333337	1.1
814.5374969267933	0.19536666666666658	1.378666666666667	1.1
814.7416495312829	0.19539999999999993	1.378666666666667	1.1
814.741758990393	0.19803333333333328	1.3997333333333335	1.1
814.741758990393	0.19103333333333325	1.4009333333333331	1.1
814.7384620688874	0.19743333333333324	1.4	1.1
814.7395411004657	0.19273333333333326	1.4004	1.1
815.1312522725042	0.18339999999999995	1.2549333333333337	1.1
815.1312522725042	0.18483333333333327	1.16	1.1
815.3274440203636	0.19579999999999995	1.3025333333333338	1.1
815.3284923131287	0.18699999999999994	1.3198666666666667	1.1
816.2090909711195	0.18359999999999996	1.3130666666666668	1.1
816.2090909711195	0.18359999999999996	1.16	1.1
816.2089863940392	0.18519999999999995	1.16	1.1
816.9073211467002	0.17479999999999996	1.16	1.1
816.8140601252201	0.18546666666666659	1.3016000000000003	1.1
816.8140601252201	0.1775333333333333	1.2688000000000001	1.1
817.495907472233	0.18319999999999992	1.3012000000000004	1.1
817.4913216803782	0.18183333333333326	1.2420000000000002	1.1
817.7934455594736	0.1712333333333333	1.1766666666666667	1.1
817.7934455594736	0.17623333333333324	1.164266666666667	1.1
818.1975869300907	0.18083333333333326	1.3176000000000003	1.1
818.2870628892024	0.17279999999999993	1.255866666666667	1.1
818.1946974014021	0.17006666666666662	1.1989333333333336	1.1
818.1946974014021	0.17006666666666662	1.2069333333333334	1.1
818.1946974014021	0.17963333333333328	1.2069333333333334	1.1
818.5960249396169	0.17249999999999996	1.212	1.1
818.5938261103495	0.17499999999999993	1.2268000000000003	1.1
818.5960726825622	0.16983333333333328	1.1620000000000001	1.1
818.5960726825622	0.16706666666666659	1.16	1.1
818.5950492123494	0.17349999999999993	1.1601333333333335	1.1
819.7846983335108	0.17249999999999993	1.2358666666666671	1.1
819.7919740685963	0.17729999999999996	1.3249333333333335	1.1
819.7919740685963	0.18939999999999993	1.3608000000000002	1.1
819.8849088847304	0.17556666666666657	1.3186666666666669	1.1
820.4953964843904	0.18083333333333323	1.3304000000000002	1.1
820.4941864548668	0.18083333333333323	1.3534666666666668	1.1
820.4941864548668	0.17499999999999996	1.320266666666667	1.1
820.4941864548668	0.17909999999999995	1.320266666666667	1.1
821.0856736342038	0.1699666666666666	1.322266666666667	1.1
821.0842528136477	0.18679999999999994	1.3792000000000004	1.1
821.0842528136477	0.17589999999999995	1.3941333333333334	1.1
821.7904821269738	0.16649999999999993	1.3348000000000002	1.1
821.8891285415289	0.16683333333333328	1.4005333333333334	1.1
821.7956031611758	0.17783333333333326	1.3998666666666668	1.1
821.7956031611758	0.18453333333333327	1.4033333333333333	1.1
821.8864872001568	0.17239999999999994	1.4001333333333335	1.1
821.8864872001568	0.17639999999999995	1.3924	1.1
822.1916157572916	0.17639999999999995	1.3204000000000002	1.1
822.1916157572916	0.17253333333333332	1.3204000000000002	1.1
822.2876639413948	0.16919999999999993	1.3184000000000002	1.1
822.4918435931334	0.16233333333333327	1.2444000000000002	1.1
822.4918435931334	0.17406666666666662	1.319466666666667	1.1
822.4918435931334	0.17206666666666662	1.4601333333333333	1.1
823.4994994827716	0.17443333333333327	1.4762666666666666	1.1
823.8996139287182	0.16689999999999997	1.4068	1.1
823.9010137686411	0.17176666666666662	1.4141333333333335	1.1
824.3049758759697	0.1698666666666666	1.4424000000000001	1.1
824.3049758759697	0.1749666666666666	1.3980000000000001	1.1
824.3049758759697	0.1588666666666666	1.3350666666666668	1.1
824.4018939060927	0.1588666666666666	1.3185333333333338	1.1
824.8054540495712	0.15903333333333328	1.324266666666667	1.1
824.8054540495712	0.16753333333333328	1.324266666666667	1.1
825.2123026559667	0.1757666666666666	1.4325333333333332	1.1
825.2137838082294	0.16946666666666657	1.2422666666666669	1.1
825.2113309732385	0.16203333333333328	1.3061333333333338	1.1
825.2113309732385	0.1647666666666666	1.343466666666667	1.1
825.6137227639649	0.1640666666666666	1.4785333333333333	1.1
825.6173861531604	0.16436666666666663	1.4074666666666666	1.1
825.7123899007645	0.16073333333333328	1.3354666666666668	1.1
825.7123899007645	0.1689666666666666	1.3200000000000003	1.1
825.712489647167	0.16249999999999995	1.3204000000000002	1.1
825.712489647167	0.16249999999999995	1.416	1.1
826.4300194665828	0.16999999999999996	1.4627999999999999	1.1
826.4300194665828	0.1598333333333333	1.4627999999999999	1.1
826.4300194665828	0.15799999999999992	1.3441333333333336	1.1
827.337323975544	0.15856666666666663	1.3181333333333336	1.1
827.2325848205905	0.16819999999999993	1.3888	1.1
827.2325848205905	0.15829999999999994	1.3566666666666667	1.1
827.3441713071574	0.15613333333333326	1.3193333333333335	1.1
827.3326499328382	0.16383333333333325	1.3180000000000003	1.1
827.944112797545	0.1644333333333333	1.3348000000000002	1.1
828.041033681606	0.16843333333333327	1.3213333333333337	1.1
828.041033681606	0.16969999999999993	1.4566666666666668	1.1
828.5596819760871	0.16969999999999993	1.4797333333333331	1.1
828.6585794869931	0.1674666666666666	1.3801333333333332	1.1
828.6584199231432	0.1569666666666666	1.3801333333333332	1.1
828.6584199231432	0.1487666666666666	1.364666666666667	1.1
828.6584199231432	0.16389999999999996	1.4543999999999997	1.1
829.2673278992976	0.16419999999999996	1.4154666666666667	1.1
829.4767430147647	0.1592666666666666	1.3193333333333335	1.1
829.4767430147647	0.15716666666666662	1.384266666666667	1.1
829.4770761070181	0.15679999999999997	1.3245333333333338	1.1
829.4768768781641	0.16249999999999992	1.318666666666667	1.1
829.8929036217025	0.15609999999999993	1.321866666666667	1.1
829.8929036217025	0.16579999999999995	1.4222666666666666	1.1
829.9899015911176	0.16579999999999995	1.4198666666666668	1.1
830.3955475791527	0.1646333333333333	1.3942666666666665	1.1
830.4942383157585	0.16139999999999996	1.3942666666666665	1.1
830.4942383157585	0.16009999999999994	1.4014666666666666	1.1
831.119397144439	0.1590666666666666	1.350666666666667	1.1
831.2173540095498	0.16019999999999993	1.3200000000000003	1.1
831.2183511172509	0.1682333333333333	1.4282666666666668	1.1
831.2183511172509	0.1610333333333333	1.4630666666666665	1.1
831.2183511172509	0.1650666666666666	1.3493333333333335	1.1
831.9389134479392	0.15059999999999996	1.316666666666667	1.1
831.9354989110171	0.1606666666666666	1.2573333333333334	1.1
831.9354989110171	0.1599666666666666	1.3653333333333335	1.1
831.9354989110171	0.1599666666666666	1.3216000000000003	1.1
832.5529379939155	0.1637333333333333	1.3357333333333337	1.1
832.7514897639614	0.1685666666666666	1.3357333333333337	1.1
832.964416066249	0.1764666666666666	1.4738666666666667	1.1
832.964416066249	0.1711666666666666	1.4120000000000001	1.1
833.3782988566629	0.1739666666666666	1.3988	1.1
833.367334217556	0.1772666666666666	1.333466666666667	1.1
833.3751453324945	0.18199999999999994	1.3229333333333337	1.1
833.3751453324945	0.19519999999999993	1.4358666666666666	1.1
833.4743466509061	0.17849999999999994	1.4151999999999998	1.1
833.9894143308348	0.1965999999999999	1.1722666666666668	1.1
833.9929868067967	0.2053666666666666	1.1580000000000004	1.1
833.9929868067967	0.2053666666666666	1.1590666666666667	1.1
834.3041964127233	0.19636666666666658	1.1590666666666667	1.1
834.4008373856622	0.22533333333333327	1.0753333333333335	1.1
834.7215749434032	0.2274666666666666	1.0579999999999998	1.1
834.7215749434032	0.19423333333333329	0.5686666666666668	1.1
834.9300535854629	0.15273333333333328	0.20506666666666684	1.1
835.348563393976	0.1376666666666666	0.10453333333333342	1.1
835.340026927872	0.1199666666666666	0.010933333333333344	1.1
835.340026927872	0.12573333333333328	-0.0074666666666666735	1.1
835.6519073769671	0.11406666666666662	-0.031600000000000024	1.1
835.755292509192	0.1092333333333333	-0.034266666666666695	1.1
836.378164912417	0.1092333333333333	-0.03400000000000003	1.1
836.378164912417	0.10836666666666664	-0.03013333333333336	1.1
836.3781319879023	0.10216666666666663	-0.03013333333333336	1.1
836.6853085534286	0.10526666666666663	-0.03173333333333336	1.1
836.7898213897712	0.10376666666666662	-0.0334666666666667	1.1
837.1057550777564	0.10819999999999995	-0.03520000000000003	1.1
837.1057550777564	0.11106666666666665	-0.0334666666666667	1.1
837.1057654734743	0.10343333333333331	-0.03413333333333336	1.1
837.1058598717926	0.10999999999999996	-0.03360000000000003	1.1
837.5217391595678	0.10559999999999996	-0.03360000000000003	1.1
837.5217391595678	0.10959999999999996	-0.034800000000000025	1.1
837.522581274049	0.10826666666666661	-0.03200000000000003	1.1
837.7275920771801	0.10826666666666661	-0.03520000000000003	1.1
837.7275920771801	0.11079999999999995	-0.03373333333333336	1.1
837.7275920771801	0.1099333333333333	-0.03373333333333336	1.1
838.247464021441	0.10673333333333329	-0.03266666666666669	1.1
838.878898449018	0.10333333333333329	-0.032533333333333365	1.1
839.0848278088655	0.1078333333333333	-0.033066666666666696	1.1
839.0848278088655	0.11079999999999994	-0.03333333333333336	1.1
838.9797372703011	0.10229999999999996	-0.03360000000000003	1.1
839.4035336668517	0.11116666666666665	-0.034800000000000025	1.1
839.603173732006	0.10119999999999996	-0.030400000000000028	1.1
839.603173732006	0.10256666666666663	-0.033066666666666696	1.1
840.1247691189084	0.10526666666666662	-0.033066666666666696	1.1
840.3461787850566	0.10526666666666662	-0.0338666666666667	1.1
840.439240585206	0.10149999999999997	-0.030666666666666693	1.1
840.439240585206	0.10636666666666664	-0.030666666666666693	1.1
840.6602904592085	0.1063333333333333	-0.03373333333333336	1.1
840.8682022762939	0.10916666666666662	-0.03200000000000003	1.1
840.9713491102837	0.1058333333333333	-0.031333333333333366	1.1
840.9713491102837	0.10883333333333331	-0.03400000000000003	1.1
840.9713491102837	0.10136666666666662	-0.032533333333333365	1.1
840.9713491102837	0.11583333333333329	-0.035466666666666695	1.1
841.2344896132067	0.10913333333333329	-0.03293333333333336	1.1
841.7086018180963	0.10049999999999995	-0.03333333333333336	1.1
841.7086018180963	0.10869999999999995	-0.03400000000000003	1.1
842.1293727022733	0.10869999999999995	-0.033066666666666696	1.1
842.3332924804378	0.10209999999999995	-0.03106666666666669	1.1
842.549286974395	0.0971333333333333	-0.03106666666666669	1.1
842.549286974395	0.1073333333333333	-0.03360000000000003	1.1
842.7606687319106	0.11193333333333327	-0.03373333333333336	1.1
842.9698538358381	0.10029999999999996	-0.03320000000000003	1.1
843.0702909183082	0.1074333333333333	-0.03533333333333336	1.1
843.0702909183082	0.10046666666666662	-0.03173333333333336	1.1
843.2912812440337	0.10963333333333329	-0.0338666666666667	1.1
843.3883821856955	0.10539999999999995	-0.03400000000000003	1.1
844.1386966419475	0.10836666666666664	-0.03320000000000003	1.1
844.1386966419475	0.10649999999999997	-0.03213333333333336	1.1
844.4470121144601	0.10649999999999997	-0.033066666666666696	1.1
844.6692590675168	0.11143333333333326	-0.03280000000000003	1.1
844.664230307836	0.10763333333333329	-0.03280000000000003	1.1
844.664230307836	0.1092333333333333	-0.03266666666666669	1.1
844.664230307836	0.1074333333333333	-0.03520000000000003	1.1
844.8755013879567	0.1044333333333333	-0.033066666666666696	1.1
844.8755013879567	0.10419999999999995	-0.03280000000000003	1.1
844.8755013879567	0.10916666666666662	-0.03280000000000003	1.1
844.3478284080879	0.1118666666666666	-0.034266666666666695	1.1
844.5509855112185	0.1139666666666666	-0.03400000000000003	1.1
844.3476017328844	0.1016333333333333	-0.03173333333333336	1.1
844.3476017328844	0.09939999999999995	-0.03173333333333336	1.1
843.929586412918	0.10693333333333328	-0.0338666666666667	1.1
843.7128549830376	0.10893333333333328	-0.03200000000000003	1.1
842.8291962063815	0.10893333333333328	-0.03373333333333336	1.1
843.0798279278481	0.10646666666666663	-0.03333333333333336	1.1
843.0798279278481	0.1058333333333333	-0.03333333333333336	1.1
842.7546990768603	0.10349999999999995	-0.03266666666666669	1.1
842.5483751645112	0.10596666666666661	-0.034933333333333365	1.1
842.3336544533202	0.10789999999999997	-0.03280000000000003	1.1
842.3336544533202	0.10466666666666662	-0.03280000000000003	1.1
842.0613882787486	0.10299999999999997	-0.03373333333333336	1.1
841.7056561423155	0.10213333333333328	-0.03213333333333336	1.1
841.4977717244753	0.11266666666666661	-0.03453333333333337	1.1
841.4977717244753	0.11099999999999995	-0.03266666666666669	1.1
841.6046302837318	0.10366666666666663	-0.03173333333333336	1.1
841.2842236837735	0.11173333333333327	-0.03360000000000003	1.1
841.2842236837735	0.11173333333333327	-0.03320000000000003	1.1
841.2842236837735	0.11586666666666663	-0.03320000000000003	1.1
841.2846323795281	0.10399999999999995	-0.03320000000000003	1.1
840.8615433899461	0.09986666666666662	-0.030666666666666693	1.1
840.6624665034494	0.10569999999999996	-0.031866666666666696	1.1
840.4501656674753	0.10186666666666662	-0.03173333333333336	1.1
840.4501656674753	0.11066666666666664	-0.03360000000000003	1.1
840.4503129476939	0.0988666666666666	-0.03173333333333336	1.1
840.1309808755635	0.10416666666666662	-0.030266666666666695	1.1
839.5090070966708	0.10313333333333329	-0.032266666666666693	1.1
839.5090070966708	0.10409999999999997	-0.0334666666666667	1.1
839.5050326175724	0.10843333333333328	-0.03173333333333336	1.1
838.699610430958	0.10843333333333328	-0.033066666666666696	1.1
838.9840712523583	0.10249999999999995	-0.03280000000000003	1.1
838.9840712523583	0.10433333333333328	-0.03280000000000003	1.1
838.9840712523583	0.1130333333333333	-0.035600000000000034	1.1
838.2486222885378	0.10683333333333328	-0.03280000000000003	1.1
838.1544122274115	0.10559999999999996	-0.030400000000000028	1.1
838.1544122274115	0.10386666666666662	-0.03320000000000003	1.1
838.1535459378013	0.11019999999999996	-0.03533333333333336	1.1
837.627381801187	0.10226666666666662	-0.03213333333333336	1.1
837.7346795202963	0.11076666666666664	-0.03520000000000003	1.1
837.7346795202963	0.10789999999999997	-0.03333333333333336	1.1
837.4262116096043	0.10826666666666661	-0.03453333333333337	1.1
837.1035392190862	0.10826666666666661	-0.03360000000000003	1.1
837.0937486547783	0.11326666666666661	-0.03360000000000003	1.1
837.0937486547783	0.10629999999999995	-0.03360000000000003	1.1
836.7949842237824	0.09916666666666663	-0.03266666666666669	1.1
836.5816482054906	0.10823333333333328	-0.03280000000000003	1.1
836.5839110058523	0.10589999999999997	-0.034266666666666695	1.1
836.5839110058523	0.10839999999999997	-0.03373333333333336	1.1
836.1652937136716	0.10083333333333329	-0.032266666666666693	1.1
835.7633273851776	0.10509999999999996	-0.03106666666666669	1.1
835.7465592033243	0.1029333333333333	-0.03213333333333336	1.1
835.7459702623023	0.11629999999999996	-0.03533333333333336	1.1
835.7459702623023	0.1086333333333333	-0.03293333333333336	1.1
834.0540249291881	0.1086333333333333	-0.010666666666666677	1.1
835.2357593053925	0.11866666666666663	-0.010666666666666677	1.1
835.029786936861	0.12306666666666663	0.007200000000000007	1.1
835.029786936861	0.13279999999999997	0.04786666666666671	1.1
834.9237748499338	0.1498666666666666	0.13120000000000012	1.1
834.7179617612721	0.1656666666666666	0.21800000000000017	1.1
834.5096223980776	0.20233333333333325	0.456	1.1
834.5096223980776	0.2398666666666666	0.9721333333333333	1.1
834.206191118577	0.2334666666666666	1.050266666666667	1.1
833.9895442687811	0.21763333333333326	1.227066666666667	1.1
833.8912526151298	0.20823333333333324	1.2180000000000002	1.1
833.8912526151298	0.20823333333333324	1.224666666666667	1.1
833.474027509935	0.1963999999999999	1.4089333333333334	1.1
833.3729342035455	0.1912666666666666	1.4089333333333334	1.1
833.3729342035455	0.1865666666666666	1.4021333333333332	1.1
833.3729342035455	0.1812666666666666	1.3932	1.1
832.963506250434	0.1705333333333333	1.3986666666666667	1.1
832.967715147631	0.17269999999999994	1.3997333333333335	1.1
832.967715147631	0.15933333333333327	1.3981333333333332	1.1
832.967715147631	0.16159999999999994	1.478	1.1
832.65593367795	0.16239999999999996	1.4286666666666668	1.1
832.65593367795	0.16956666666666662	1.4182666666666668	1.1
831.7275743371875	0.16129999999999994	1.3444000000000003	1.1
831.7275743371875	0.15923333333333328	1.3124000000000002	1.1
831.726713272872	0.15923333333333328	1.3210666666666668	1.1
831.2199930295883	0.16143333333333326	1.3210666666666668	1.1
831.2201427566451	0.16759999999999994	1.4801333333333333	1.1
831.2201427566451	0.1688666666666666	1.4818666666666664	1.1
831.2201642130613	0.16473333333333323	1.48	1.1
830.6003989469493	0.16813333333333327	1.4667999999999999	1.1
830.3946621044316	0.15459999999999993	1.3948000000000003	1.1
829.9848940444865	0.17319999999999994	1.48	1.1
829.9848940444865	0.1582666666666666	1.3748000000000002	1.1
829.9822742205037	0.15973333333333326	1.4157333333333335	1.1
829.4785993476161	0.15449999999999994	1.3201333333333336	1.1
829.3809483338367	0.16249999999999995	1.3585333333333336	1.1
829.3809483338367	0.16249999999999995	1.4555999999999998	1.1
829.3809176079518	0.1556333333333333	1.4555999999999998	1.1
829.378373453138	0.16319999999999993	1.4792	1.1
829.378373453138	0.16336666666666658	1.436	1.1
829.378373453138	0.16229999999999994	1.4301333333333333	1.1
828.658352447802	0.16583333333333328	1.4544	1.1
828.5626942696141	0.15893333333333326	1.4058666666666666	1.1
827.6412975133011	0.1595666666666666	1.4745333333333335	1.1
827.6412975133011	0.16923333333333326	1.48	1.1
828.0560051677256	0.15433333333333327	1.48	1.1
827.3373300504269	0.15969999999999995	1.4146666666666665	1.1
827.3373300504269	0.16553333333333328	1.321866666666667	1.1
827.3373300504269	0.16553333333333328	1.334666666666667	1.1
827.2373832088118	0.16219999999999993	1.334666666666667	1.1
826.8350963529978	0.1608666666666666	1.372666666666667	1.1
826.824986230321	0.15559999999999996	1.3232000000000004	1.1
826.824986230321	0.15523333333333325	1.2680000000000002	1.1
826.121544337212	0.16653333333333326	1.3405333333333334	1.1
826.1217009821999	0.1655666666666666	1.4801333333333333	1.1
825.7100798061565	0.16099999999999992	1.3768000000000002	1.1
825.7100798061565	0.16453333333333328	1.3326666666666669	1.1
825.7107283929148	0.16206666666666664	1.3866666666666667	1.1
825.6184780540824	0.1670666666666666	1.4626666666666666	1.1
825.6146729498531	0.17279999999999993	1.4738666666666667	1.1
825.309647576829	0.17279999999999993	1.4782666666666666	1.1
825.309647576829	0.1707333333333333	1.3844	1.1
825.3109589052917	0.16399999999999995	1.3844	1.1
825.2157841668991	0.15846666666666662	1.323466666666667	1.1
825.2157841668991	0.16683333333333325	1.2960000000000003	1.1
825.2157841668991	0.1668666666666666	1.4070666666666667	1.1
824.4026068889759	0.17369999999999994	1.2817333333333336	1.1
824.4026068889759	0.17006666666666662	1.3026666666666669	1.1
824.0021356266287	0.1655666666666666	1.3914666666666669	1.1
824.0021356266287	0.17123333333333327	1.3929333333333334	1.1
824.0961017790959	0.17706666666666662	1.3812	1.1
823.4975820029504	0.1741999999999999	1.4674666666666667	1.1
823.5011087623147	0.1741999999999999	1.48	1.1
823.5011087623147	0.17206666666666662	1.48	1.1
822.4941277979585	0.1747666666666666	1.48	1.1
822.4941277979585	0.17913333333333326	1.3754666666666666	1.1
822.1869342812777	0.17059999999999992	1.3192000000000004	1.1
822.1869342812777	0.17499999999999993	1.3193333333333335	1.1
822.1871928459758	0.16829999999999992	1.3352000000000002	1.1
822.1871928459758	0.16839999999999994	1.3614666666666668	1.1
821.8896192593719	0.17396666666666658	1.3988	1.1
821.8896192593719	0.17359999999999995	1.4004	1.1
821.7917757476608	0.1782666666666666	1.4005333333333332	1.1
822.8552127528238	0.16539999999999994	1.372	1.1
821.390342317589	0.16539999999999994	1.3673333333333335	1.1
821.390342317589	0.1800666666666666	1.3996	1.1
820.991031220463	0.1687666666666666	1.3996	1.1
820.5893621504973	0.18423333333333328	1.3704	1.1
820.4960292267085	0.16633333333333325	1.2870666666666668	1.1
820.4960292267085	0.1842666666666666	1.323466666666667	1.1
820.4924029633975	0.17879999999999993	1.3590666666666669	1.1
819.789385910146	0.1734666666666666	1.3436000000000001	1.1
819.7886008219959	0.1795333333333333	1.3684000000000003	1.1
819.0536487135421	0.18539999999999993	1.3925333333333334	1.1
819.0536487135421	0.17063333333333328	1.3094666666666668	1.1
819.0536487135421	0.1802666666666666	1.3230666666666668	1.1
818.5926460720211	0.1802666666666666	1.247466666666667	1.1
818.5958929007949	0.17483333333333326	1.1612	1.1
818.5958929007949	0.16729999999999995	1.1612	1.1
818.4987530535069	0.17093333333333327	1.1602666666666668	1.1
818.4987530535069	0.1842666666666666	1.237466666666667	1.1
818.2877937813253	0.18216666666666662	1.239466666666667	1.1
818.2877937813253	0.18129999999999996	1.2357333333333336	1.1
818.1984104943947	0.18199999999999994	1.246266666666667	1.1
817.7984689513081	0.1828666666666666	1.2957333333333336	1.1
817.4936235010276	0.17319999999999994	1.1673333333333336	1.1
817.4936235010276	0.18033333333333326	1.2373333333333334	1.1
817.3045497474785	0.1790333333333333	1.2810666666666668	1.1
817.4007196999694	0.1848666666666666	1.320666666666667	1.1
816.9033448251226	0.1848666666666666	1.3201333333333336	1.1
816.9033448251226	0.1887666666666666	1.3206666666666669	1.1
816.2076920080392	0.17523333333333327	1.3206666666666669	1.1
816.1158112557335	0.1850666666666666	1.163066666666667	1.1
815.3230233530363	0.17729999999999996	1.1637333333333333	1.1
815.3230233530363	0.1932666666666666	1.3844	1.1
815.3218974158438	0.1918666666666666	1.3821333333333332	1.1
815.1288595794846	0.18089999999999995	1.1678666666666666	1.1
814.740710727135	0.18826666666666658	1.1601333333333337	1.1
814.740710727135	0.1997666666666666	1.3950666666666667	1.1
814.738755598162	0.1987666666666666	1.4009333333333334	1.1
814.738755598162	0.19509999999999994	1.4014666666666669	1.1
814.536397992167	0.19509999999999994	1.4073333333333335	1.1
814.536397992167	0.19953333333333326	1.3922666666666668	1.1
814.536397992167	0.19853333333333326	1.3922666666666668	1.1
814.0435658324419	0.1963666666666666	1.2849333333333337	1.1
813.1646678116844	0.18213333333333326	1.2406666666666668	1.1
813.1646678116844	0.1866666666666666	1.247866666666667	1.1
813.165011522444	0.1903666666666666	1.3008000000000002	1.1
813.1646419649666	0.19753333333333326	1.3146666666666669	1.1
812.6799173038474	0.1917666666666666	1.239866666666667	1.1
812.6799173038474	0.19299999999999992	1.321866666666667	1.1
812.6801212374994	0.19663333333333327	1.343866666666667	1.1
812.6801212374994	0.19279999999999994	1.2402666666666669	1.1
811.5028278422391	0.19279999999999994	1.1661333333333335	1.1
811.5048767987556	0.17493333333333327	1.1608	1.1
811.5048767987556	0.18929999999999994	1.1608	1.1
811.5002405574025	0.18209999999999993	1.1812	1.1
811.4042723017811	0.18409999999999993	1.2469333333333334	1.1
811.4042308025187	0.19479999999999992	1.3200000000000003	1.1
811.4042308025187	0.19399999999999992	1.3677333333333335	1.1
811.3380927922555	0.19083333333333327	1.3625333333333334	1.1
811.3380927922555	0.19479999999999992	1.3954666666666666	1.1
811.106075786631	0.1978999999999999	1.4752	1.1
811.106075786631	0.1949666666666666	1.3452000000000002	1.1
810.6283341229837	0.18646666666666661	1.247466666666667	1.1
810.175596458022	0.18646666666666661	1.2706666666666668	1.1
810.1207306997736	0.18766666666666662	1.2706666666666668	1.1
810.1207306997736	0.19019999999999992	1.2182666666666668	1.1
809.5484728773014	0.1896666666666666	1.1893333333333336	1.1
809.5484728773014	0.1975666666666666	1.2097333333333335	1.1
809.5484728773014	0.19016666666666662	1.1658666666666668	1.1
809.5484728773014	0.19229999999999994	1.1602666666666668	1.1
809.4530456723393	0.1875999999999999	1.1606666666666667	1.1
809.3601109102988	0.18189999999999992	1.1634666666666669	1.1
808.2850465122266	0.18399999999999994	1.2005333333333337	1.1
808.2850465122266	0.1964666666666666	1.3052000000000001	1.1
808.2840632475076	0.19613333333333324	1.1981333333333335	1.1
808.1943770616926	0.19613333333333324	1.1601333333333335	1.1
807.9045006866875	0.19349999999999995	1.1609333333333336	1.1
807.9045006866875	0.18686666666666657	1.1609333333333336	1.1
807.9002753050427	0.18593333333333326	1.1618666666666668	1.1
807.8990193088968	0.19009999999999994	1.1916000000000002	1.1
807.804853784089	0.1912666666666666	1.246666666666667	1.1
807.804853784089	0.19393333333333326	1.3200000000000003	1.1
807.7150220360054	0.1924999999999999	1.274666666666667	1.1
807.4177637892567	0.18976666666666658	1.16	1.1
807.0348011339678	0.17929999999999993	1.1584	1.1
807.0348011339678	0.18729999999999994	1.2785333333333335	1.1
807.0347584206953	0.20433333333333326	1.2396000000000003	1.1
806.6457643744191	0.20433333333333326	1.1652000000000002	1.1
806.6457643744191	0.1800666666666666	1.2144000000000001	1.1
806.6457643744191	0.19593333333333324	1.2144000000000001	1.1
805.7798540923715	0.18863333333333324	1.241466666666667	1.1
805.7799742566895	0.18443333333333325	1.2456000000000003	1.1
804.8254810268152	0.17849999999999994	1.2313333333333334	1.1
804.8254810268152	0.1805666666666666	1.1920000000000002	1.1
804.8254837705362	0.1936666666666666	1.1640000000000001	1.1
804.7222897071305	0.18513333333333326	1.1600000000000001	1.1
804.6248650736635	0.1795666666666666	1.1492000000000002	1.1
804.4389453484937	0.18843333333333329	1.1505333333333334	1.1
804.4389453484937	0.17503333333333326	1.0837333333333334	1.1
804.3502729179052	0.17923333333333327	1.1033333333333335	1.1
804.347855522057	0.17923333333333327	1.1400000000000001	1.1
804.2428964041173	0.18473333333333328	1.1400000000000001	1.1
804.2428964041173	0.19166666666666662	1.1457333333333335	1.1
804.0523283154815	0.18353333333333327	1.1548000000000003	1.1
803.9693378550031	0.19189999999999993	1.1601333333333337	1.1
803.4844105795094	0.18459999999999993	1.2254666666666667	1.1
803.4844105795094	0.1787666666666666	1.1853333333333333	1.1
803.4844105795094	0.17713333333333325	1.16	1.1
802.7200899938657	0.18249999999999994	1.16	1.1
802.7171036083298	0.19173333333333328	1.237066666666667	1.1
802.7171036083298	0.18849999999999992	1.2404000000000002	1.1
802.3387534397824	0.18519999999999995	1.1438666666666668	1.1
801.4852981232837	0.18519999999999995	1.0864000000000003	1.1
801.391121495084	0.18199999999999994	1.0864000000000003	1.1
801.391121495084	0.1740666666666666	1.0816000000000001	1.1
801.4199227881621	0.1799666666666666	1.1326666666666667	1.1
801.1916894186216	0.1896666666666666	1.1664000000000003	1.1
801.191606343975	0.19403333333333325	1.2732000000000003	1.1
801.191606343975	0.1927666666666666	1.3109333333333337	1.1
801.1915997778711	0.1813333333333333	1.2052000000000003	1.1
801.1011778396589	0.17443333333333327	1.1158666666666666	1.1
801.0981919819133	0.1760333333333333	1.0782666666666667	1.1
801.0981919819133	0.18266666666666662	1.0770666666666666	1.1
800.8140366757581	0.18946666666666662	1.1417333333333335	1.1
800.5410442915326	0.18946666666666662	1.1718666666666668	1.1
800.5410442915326	0.1825666666666666	1.1718666666666668	1.1
800.5410442915326	0.19009999999999994	1.2200000000000002	1.1
800.3355200141483	0.19016666666666662	1.1190666666666667	1.1
