wavelength(nm)	flourescence PMT(V)	ti_saph Power (V)	Gain (V)
800.4305224356176	0.19249999999999992	1.1658666666666668	1.1
800.4306914483059	0.1949999999999999	1.1462666666666668	1.1
800.8109667481845	0.18229999999999993	1.1104	1.1
800.8109667481845	0.1860666666666666	1.1557333333333335	1.1
800.9052495460982	0.1875666666666666	1.1008	1.1
800.9063617931173	0.1875666666666666	1.1076000000000001	1.1
801.0954889398338	0.1804666666666666	1.0821333333333334	1.1
801.1908921635896	0.18166666666666662	1.0821333333333334	1.1
801.1908921635896	0.18019999999999994	1.0800000000000003	1.1
801.0956014988166	0.18289999999999995	1.0948000000000002	1.1
801.1086227774086	0.19299999999999992	1.1586666666666667	1.1
801.3734420244143	0.1942666666666666	1.1714666666666669	1.1
801.3893679374423	0.1879666666666666	1.1278666666666668	1.1
801.3893679374423	0.17623333333333327	1.0945333333333334	1.1
801.3008520421247	0.18189999999999992	1.1334666666666668	1.1
802.336195593699	0.1860666666666666	1.1516000000000002	1.1
802.7182358573792	0.18589999999999993	1.1601333333333337	1.1
802.6806669520901	0.18589999999999993	1.1957333333333335	1.1
802.6806669520901	0.18436666666666657	1.1606666666666667	1.1
802.813881514902	0.1871666666666666	1.1606666666666667	1.1
803.4823208591238	0.1795333333333333	1.1600000000000001	1.1
803.9629250435331	0.1815666666666666	1.1601333333333335	1.1
803.9643248135047	0.1877666666666666	1.2420000000000002	1.1
804.2497996854487	0.19119999999999995	1.2224000000000004	1.1
804.2497996854487	0.18649999999999994	1.16	1.1
804.2498760891775	0.1892999999999999	1.1628	1.1
804.3462797024827	0.18719999999999995	1.1598666666666668	1.1
804.4375940250176	0.18473333333333328	1.1012	1.1
804.4339970702076	0.18079999999999993	1.0801333333333332	1.1
804.4339970702076	0.18079999999999993	1.1392000000000002	1.1
804.6252554256708	0.19133333333333324	1.1577333333333335	1.1
804.6280149475218	0.1875666666666666	1.1577333333333335	1.1
804.8207819396227	0.19156666666666658	1.1590666666666667	1.1
804.8245783413208	0.2005666666666666	1.1878666666666666	1.1
804.8245783413208	0.19473333333333326	1.239866666666667	1.1
805.9793897393463	0.18829999999999994	1.1705333333333334	1.1
805.9767973944319	0.1867666666666666	1.16	1.1
805.9767973944319	0.19413333333333327	1.2297333333333336	1.1
806.076876750728	0.20123333333333326	1.2710666666666668	1.1
806.9366388738109	0.19173333333333328	1.2633333333333334	1.1
806.9366388738109	0.18143333333333325	1.1502666666666668	1.1
807.1646495776222	0.18143333333333325	1.1601333333333335	1.1
807.4231741389285	0.19353333333333325	1.1601333333333335	1.1
807.5134945089536	0.19153333333333328	1.1601333333333337	1.1
807.6189686938524	0.18183333333333326	1.16	1.1
807.6189686938524	0.17879999999999996	1.1592000000000002	1.1
807.7612077996837	0.18269999999999995	1.1569333333333334	1.1
807.809296440025	0.1878666666666666	1.16	1.1
807.8051547063814	0.17953333333333327	1.2013333333333336	1.1
807.9919139765628	0.19349999999999992	1.2672000000000003	1.1
807.9919139765628	0.1942666666666666	1.239466666666667	1.1
807.9059963630107	0.19046666666666656	1.1608	1.1
808.0016401335614	0.18923333333333328	1.16	1.1
808.1034125343709	0.18923333333333328	1.263066666666667	1.1
808.1915334550531	0.1900999999999999	1.263066666666667	1.1
808.1915334550531	0.1920666666666666	1.3112000000000004	1.1
808.2832816234471	0.19406666666666658	1.16	1.1
808.2832816234471	0.19543333333333326	1.1594666666666669	1.1
809.1585645175921	0.18999999999999992	1.2018666666666669	1.1
809.1585645175921	0.18733333333333324	1.264666666666667	1.1
809.5470181566587	0.18789999999999996	1.2210666666666667	1.1
809.5470181566587	0.1839666666666666	1.1822666666666668	1.1
809.45411749712	0.1926666666666666	1.179066666666667	1.1
809.8451833889901	0.18519999999999995	1.16	1.1
810.2341949802485	0.18759999999999993	1.1864000000000003	1.1
810.7171539947044	0.18759999999999993	1.1894666666666667	1.1
810.7171539947044	0.18163333333333326	1.1894666666666667	1.1
810.6306646482522	0.1880666666666666	1.2840000000000003	1.1
811.1147995715472	0.1852999999999999	1.1964000000000004	1.1
811.1113101688841	0.18829999999999994	1.2697333333333336	1.1
811.1093191690616	0.1999666666666666	1.3833333333333333	1.1
811.1093191690616	0.19896666666666663	1.3961333333333334	1.1
811.2143201844738	0.19563333333333327	1.306666666666667	1.1
811.3078765451422	0.19473333333333323	1.3196000000000003	1.1
811.4979271052914	0.19799999999999993	1.3169333333333337	1.1
811.4956375530306	0.19116666666666662	1.2848000000000002	1.1
811.4956375530306	0.19116666666666662	1.1696000000000004	1.1
811.5021271676391	0.18613333333333326	1.16	1.1
811.4955879483708	0.18399999999999994	1.16	1.1
811.5030016090748	0.1760666666666666	1.16	1.1
811.8897145900415	0.18326666666666658	1.1617333333333335	1.1
811.8897145900415	0.18153333333333327	1.234666666666667	1.1
812.8670380659715	0.18969999999999992	1.3285333333333336	1.1
812.8611323314403	0.18253333333333324	1.2465333333333335	1.1
813.0685411900847	0.18936666666666657	1.2164000000000001	1.1
813.161963682074	0.19386666666666658	1.2238666666666669	1.1
814.0452649761178	0.1944666666666666	1.2748000000000002	1.1
814.0452649761178	0.18596666666666659	1.3201333333333336	1.1
814.0452649761178	0.18596666666666659	1.241866666666667	1.1
813.9995004757197	0.19559999999999994	1.2390666666666668	1.1
814.5300719170381	0.18536666666666662	1.2390666666666668	1.1
814.7405735810005	0.19949999999999993	1.339866666666667	1.1
814.7405735810005	0.19729999999999995	1.3836000000000002	1.1
814.7404409749458	0.19413333333333327	1.3960000000000001	1.1
814.7438980412195	0.2004666666666666	1.4	1.1
814.7406709715787	0.1988666666666666	1.4	1.1
814.7354376376962	0.18746666666666661	1.4006666666666667	1.1
814.7354376376962	0.19183333333333327	1.3120000000000003	1.1
814.7354376376962	0.1895999999999999	1.2769333333333335	1.1
815.3246237321525	0.20309999999999992	1.325466666666667	1.1
815.3227856667102	0.20309999999999992	1.323466666666667	1.1
815.3182672748459	0.18613333333333326	1.3228000000000002	1.1
815.3182672748459	0.19939999999999994	1.3228000000000002	1.1
816.2104432079619	0.17863333333333326	1.1857333333333335	1.1
816.9075927448991	0.17823333333333327	1.16	1.1
816.9081645783726	0.18773333333333325	1.2988000000000004	1.1
817.4015517251784	0.17703333333333326	1.2785333333333335	1.1
817.4988689101092	0.17939999999999992	1.3213333333333337	1.1
817.4988689101092	0.18983333333333324	1.2421333333333338	1.1
817.4902285675582	0.18199999999999994	1.217066666666667	1.1
817.7908979145474	0.1782666666666666	1.1637333333333333	1.1
818.1909234407038	0.18726666666666658	1.3392000000000004	1.1
818.2881080230816	0.18726666666666658	1.309066666666667	1.1
818.2881080230816	0.18449999999999994	1.309066666666667	1.1
818.2885659010672	0.1777666666666666	1.2197333333333336	1.1
818.5933854376932	0.17393333333333327	1.185066666666667	1.1
818.5933155347872	0.17889999999999992	1.2381333333333335	1.1
818.5947123053678	0.16679999999999992	1.163066666666667	1.1
818.5947123053678	0.18363333333333326	1.1612000000000002	1.1
818.5947123053678	0.19169999999999993	1.2657333333333334	1.1
819.7891837084575	0.1921666666666666	1.3733333333333333	1.1
819.7930827016152	0.1782666666666666	1.3402666666666667	1.1
819.7890770437899	0.17929999999999993	1.3337333333333334	1.1
820.5844520788186	0.17559999999999992	1.3205333333333336	1.1
820.5844520788186	0.17559999999999992	1.3360000000000005	1.1
820.4945366115589	0.18099999999999994	1.3206666666666669	1.1
820.783124559781	0.18566666666666662	1.3206666666666669	1.1
820.7804029151455	0.16639999999999996	1.3196000000000003	1.1
820.9886963400614	0.16163333333333327	1.3049333333333335	1.1
820.9886963400614	0.18573333333333325	1.3805333333333336	1.1
821.088614486759	0.1747666666666666	1.4004	1.1
821.5809302875309	0.17423333333333327	1.3305333333333336	1.1
821.7954667421011	0.16773333333333326	1.4036000000000002	1.1
821.7954667421011	0.17466666666666658	1.4001333333333335	1.1
821.7954667421011	0.16923333333333326	1.3998666666666668	1.1
821.7954667421011	0.1776666666666666	1.4	1.1
822.193745853396	0.1776666666666666	1.3729333333333338	1.1
822.1927592925575	0.18483333333333327	1.3192000000000004	1.1
822.2925493429285	0.17466666666666658	1.3192000000000004	1.1
822.2925493429285	0.17589999999999995	1.2769333333333335	1.1
820.1803047968948	0.15913333333333327	1.3005333333333335	1.1
823.4970929111798	0.16309999999999994	1.3257333333333337	1.1
823.4970929111798	0.16909999999999994	1.4692	1.1
823.501339001287	0.17009999999999995	1.4627999999999999	1.1
824.0032566844563	0.1657333333333333	1.4173333333333333	1.1
824.0032566844563	0.18413333333333326	1.4130666666666665	1.1
824.0976785150898	0.17556666666666662	1.4304000000000001	1.1
824.0964281234681	0.17263333333333325	1.382266666666667	1.1
824.4031960893019	0.17263333333333325	1.342666666666667	1.1
824.4980595345427	0.16203333333333328	1.342666666666667	1.1
824.4980595345427	0.16899999999999993	1.3210666666666668	1.1
824.9050256708823	0.16259999999999997	1.3226666666666669	1.1
824.7096639377604	0.17219999999999994	1.4635999999999998	1.1
824.7096639377604	0.17193333333333327	1.4725333333333332	1.1
825.3045352526879	0.16659999999999994	1.3636000000000001	1.1
825.3045352526879	0.16299999999999995	1.3300000000000003	1.1
825.3092699003234	0.1748666666666666	1.3760000000000001	1.1
825.6110820779198	0.16853333333333329	1.476533333333333	1.1
825.6144394148333	0.17083333333333325	1.4208	1.1
825.6144394148333	0.16066666666666662	1.3670666666666669	1.1
825.7124996996581	0.16066666666666662	1.3185333333333336	1.1
825.7124996996581	0.1709666666666666	1.3145333333333338	1.1
825.7124996996581	0.16569999999999993	1.3145333333333338	1.1
826.4301470715554	0.1671999999999999	1.4784	1.1
826.4301470715554	0.16633333333333328	1.442	1.1
827.0287741338572	0.1605666666666666	1.2513333333333336	1.1
827.0287741338572	0.16179999999999994	1.3293333333333335	1.1
827.3370936665543	0.16329999999999995	1.3724000000000003	1.1
827.3421335575389	0.15523333333333325	1.3205333333333336	1.1
827.3373459976079	0.1674666666666666	1.3209333333333335	1.1
828.0444984950916	0.16053333333333328	1.4389333333333334	1.1
828.0444984950916	0.1632666666666666	1.4461333333333335	1.1
827.9421605685197	0.1632666666666666	1.4801333333333333	1.1
828.3509648488608	0.15959999999999994	1.4801333333333333	1.1
828.5575672394676	0.15966666666666662	1.48	1.1
828.5575672394676	0.15559999999999996	1.3962666666666665	1.1
828.8590397987064	0.16319999999999993	1.3352000000000002	1.1
828.8590397987064	0.1621333333333333	1.4426666666666668	1.1
829.2715740270094	0.16589999999999994	1.3577333333333335	1.1
829.2175684925307	0.15319999999999992	1.3185333333333336	1.1
829.375511591673	0.16983333333333328	1.3714666666666668	1.1
829.3809864652602	0.1659666666666666	1.4654666666666667	1.1
829.3809864652602	0.1599666666666666	1.3810666666666669	1.1
829.9410787443464	0.1599666666666666	1.3986666666666667	1.1
829.9821301301963	0.15919999999999995	1.3934666666666666	1.1
829.9821301301963	0.1556333333333333	1.3934666666666666	1.1
830.4960744434457	0.16603333333333328	1.4209333333333332	1.1
830.4960744434457	0.15503333333333325	1.464133333333333	1.1
830.4937270445582	0.16213333333333327	1.4788	1.1
830.9040507818595	0.1584666666666666	1.4769333333333332	1.1
831.2580634020677	0.16289999999999993	1.3353333333333337	1.1
831.2580634020677	0.1628666666666666	1.3849333333333333	1.1
831.2580634020677	0.1678666666666666	1.48	1.1
831.7325314705869	0.15749999999999995	1.4816	1.1
831.7221704195921	0.1603666666666666	1.3793333333333335	1.1
831.721656936678	0.16319999999999993	1.3290666666666668	1.1
832.2365340177672	0.16319999999999993	1.3284000000000002	1.1
832.5513184515353	0.16499999999999995	1.3284000000000002	1.1
832.5513184515353	0.16149999999999995	1.3232000000000002	1.1
832.5513184515353	0.1746666666666666	1.3840000000000001	1.1
832.6482731745754	0.16653333333333326	1.4334666666666667	1.1
832.9625308114457	0.17843333333333328	1.4214666666666664	1.1
832.958876899162	0.18136666666666662	1.4001333333333335	1.1
832.958876899162	0.17886666666666662	1.391066666666667	1.1
832.958876899162	0.18103333333333327	1.384266666666667	1.1
833.3754569639341	0.18199999999999994	1.3956	1.1
833.4770645129329	0.1911666666666666	1.4201333333333335	1.1
833.8855339304811	0.1911666666666666	1.1652000000000002	1.1
833.8855339304811	0.20603333333333324	1.0982666666666667	1.1
834.3056814460199	0.19559999999999994	1.0982666666666667	1.1
834.3059554216572	0.21679999999999994	1.0793333333333333	1.1
834.3056118227519	0.2332666666666666	1.074	1.1
834.8211183973114	0.21396666666666656	0.8389333333333333	1.1
835.2339407062768	0.15786666666666663	0.18533333333333352	1.1
835.2339407062768	0.14469999999999994	0.10706666666666675	1.1
835.2339372589645	0.12789999999999996	0.03640000000000003	1.1
835.336910160959	0.12653333333333328	0.0002666666666666669	1.1
835.7485740440237	0.11156666666666662	-0.01426666666666668	1.1
836.0625543593137	0.10109999999999995	-0.029866666666666694	1.1
836.0625543593137	0.10109999999999995	-0.033066666666666696	1.1
836.0630999876239	0.10503333333333328	-0.03200000000000003	1.1
836.5861609560824	0.10443333333333328	-0.03200000000000003	1.1
836.584915839816	0.10313333333333329	-0.03293333333333336	1.1
836.7910033882933	0.10506666666666663	-0.030400000000000028	1.1
836.7910033882933	0.10859999999999995	-0.03400000000000003	1.1
836.7942637216115	0.10373333333333329	-0.030533333333333357	1.1
837.0988461313154	0.10826666666666664	-0.03333333333333336	1.1
837.1029028356799	0.10656666666666662	-0.034266666666666695	1.1
837.4149110984108	0.10013333333333328	-0.030266666666666695	1.1
837.4149110984108	0.10339999999999996	-0.030400000000000028	1.1
837.5180950366832	0.10439999999999995	-0.033066666666666696	1.1
837.8268725813351	0.10439999999999995	-0.03360000000000003	1.1
838.1460723395153	0.10316666666666663	-0.03360000000000003	1.1
838.1443830821636	0.10506666666666661	-0.03360000000000003	1.1
838.3523435518119	0.10083333333333329	-0.032266666666666693	1.1
838.3523435518119	0.10906666666666662	-0.03413333333333336	1.1
838.8809244188798	0.10099999999999996	-0.03173333333333336	1.1
838.8327631779276	0.10359999999999996	-0.03333333333333336	1.1
839.3962235769407	0.10736666666666662	-0.034266666666666695	1.1
839.5057881124104	0.1101333333333333	-0.03413333333333336	1.1
839.5057881124104	0.10929999999999995	-0.03400000000000003	1.1
839.5054816620888	0.10903333333333326	-0.03320000000000003	1.1
839.8247007316976	0.10679999999999992	-0.03200000000000003	1.1
840.3382920317536	0.10679999999999992	-0.03320000000000003	1.1
836.1754747824162	0.10776666666666661	-0.03320000000000003	1.1
836.1754747824162	0.10596666666666661	-0.03520000000000003	1.1
840.6872325106416	0.10596666666666661	-0.033066666666666696	1.1
840.8735636386642	0.10599999999999994	-0.03400000000000003	1.1
840.9658608425898	0.10326666666666663	-0.031600000000000024	1.1
840.9657852199016	0.10466666666666663	-0.03333333333333336	1.1
840.9657852199016	0.11073333333333331	-0.03373333333333336	1.1
840.9727094011131	0.10509999999999996	-0.03266666666666669	1.1
840.9727094011131	0.10776666666666661	-0.03373333333333336	1.1
841.2861010180156	0.11203333333333329	-0.03413333333333336	1.1
841.4980475263723	0.11203333333333329	-0.034266666666666695	1.1
841.4980475263723	0.10689999999999995	-0.031200000000000026	1.1
841.7060184944489	0.10339999999999994	-0.031200000000000026	1.1
842.2291044503402	0.10659999999999994	-0.03293333333333336	1.1
842.2291044503402	0.10856666666666662	-0.03320000000000003	1.1
842.6549331312814	0.10906666666666662	-0.03613333333333337	1.1
842.969025787128	0.10696666666666663	-0.03280000000000003	1.1
842.969025787128	0.10646666666666663	-0.03213333333333336	1.1
843.0757245787662	0.10529999999999994	-0.031200000000000026	1.1
843.3941630031214	0.10963333333333329	-0.0346666666666667	1.1
843.4999182626509	0.1028333333333333	-0.033066666666666696	1.1
843.4988985913293	0.1078333333333333	-0.03320000000000003	1.1
843.4988985913293	0.1078333333333333	-0.0334666666666667	1.1
844.3439786097301	0.10829999999999994	-0.03213333333333336	1.1
844.3450566837981	0.10433333333333328	-0.03213333333333336	1.1
844.5570574131807	0.11106666666666662	-0.033066666666666696	1.1
844.6661027981233	0.10533333333333329	-0.0346666666666667	1.1
844.6661027981233	0.11093333333333329	-0.03640000000000003	1.1
844.7681674184012	0.1016333333333333	-0.03293333333333336	1.1
844.7706902549114	0.10319999999999996	-0.0334666666666667	1.1
844.9792392540131	0.09749999999999995	-0.031200000000000026	1.1
844.9788646936661	0.10976666666666662	-0.03266666666666669	1.1
844.7730339229469	0.10776666666666661	-0.034933333333333365	1.1
844.6660076100236	0.10896666666666661	-0.03600000000000003	1.1
844.4475366970934	0.10829999999999994	-0.03373333333333336	1.1
844.3451325571691	0.11249999999999995	-0.035466666666666695	1.1
844.3451325571691	0.11249999999999995	-0.03440000000000003	1.1
844.3454591329881	0.11109999999999995	-0.03440000000000003	1.1
843.8159713602417	0.10873333333333328	-0.03440000000000003	1.1
843.3943691849184	0.09919999999999995	-0.03280000000000003	1.1
843.3948663009908	0.10659999999999997	-0.03280000000000003	1.1
842.9690324870267	0.1059333333333333	-0.03240000000000003	1.1
842.9690324870267	0.10583333333333328	-0.03360000000000003	1.1
842.96892725384	0.1073333333333333	-0.03266666666666669	1.1
842.8755535404715	0.10423333333333328	-0.031600000000000024	1.1
842.4493932980605	0.10146666666666661	-0.032533333333333365	1.1
841.8778567044798	0.10713333333333329	-0.03333333333333336	1.1
841.8778567044798	0.1050333333333333	-0.03293333333333336	1.1
841.7054667569749	0.1050333333333333	-0.031600000000000024	1.1
841.4977405983836	0.1086666666666666	-0.03280000000000003	1.1
841.5006397266626	0.10646666666666664	-0.03280000000000003	1.1
841.2803380244817	0.10819999999999995	-0.03453333333333337	1.1
841.2803380244817	0.10319999999999997	-0.03360000000000003	1.1
841.284687726768	0.10586666666666661	-0.03200000000000003	1.1
840.9697793206382	0.10483333333333328	-0.03173333333333336	1.1
840.9684737067256	0.0998333333333333	-0.029600000000000026	1.1
840.8674293713253	0.1137333333333333	-0.03333333333333336	1.1
840.4512392151349	0.10346666666666661	-0.03280000000000003	1.1
840.4512392151349	0.1074333333333333	-0.03173333333333336	1.1
840.3899055067134	0.10723333333333329	-0.031866666666666696	1.1
840.0335813344325	0.10723333333333329	-0.031600000000000024	1.1
839.4005808755834	0.09609999999999995	-0.03200000000000003	1.1
839.4075133214087	0.10409999999999996	-0.03200000000000003	1.1
839.4075133214087	0.10706666666666662	-0.031866666666666696	1.1
839.5026494568506	0.11036666666666661	-0.03400000000000003	1.1
839.0884728539177	0.11053333333333328	-0.03106666666666669	1.1
839.1279620444475	0.10236666666666662	-0.03266666666666669	1.1
839.1279620444475	0.10233333333333329	-0.033066666666666696	1.1
838.3551098826226	0.10466666666666662	-0.031333333333333366	1.1
838.3551098826226	0.10716666666666662	-0.03013333333333336	1.1
838.1512168892075	0.10499999999999995	-0.031333333333333366	1.1
837.7303581998544	0.10413333333333329	-0.032533333333333365	1.1
837.7196800215906	0.10413333333333329	-0.03360000000000003	1.1
837.5159808124129	0.10673333333333328	-0.03360000000000003	1.1
837.5159808124129	0.10903333333333332	-0.03360000000000003	1.1
837.41241498424	0.10446666666666662	-0.03093333333333336	1.1
837.0999578950958	0.10916666666666662	-0.032266666666666693	1.1
837.0002558831515	0.10473333333333329	-0.03280000000000003	1.1
836.9996376274004	0.1074333333333333	-0.031600000000000024	1.1
836.9996376274004	0.10236666666666662	-0.03080000000000003	1.1
836.7909191086416	0.10283333333333329	-0.033066666666666696	1.1
836.7920741439476	0.10699999999999996	-0.029866666666666694	1.1
836.375355692239	0.10463333333333329	-0.03106666666666669	1.1
836.0639171129847	0.10573333333333328	-0.03080000000000003	1.1
836.0639171129847	0.10573333333333328	-0.034266666666666695	1.1
835.6467739075237	0.10526666666666662	-0.034266666666666695	1.1
836.0605235391872	0.10599999999999994	-0.03093333333333336	1.1
835.6460553863272	0.11429999999999994	-0.03413333333333336	1.1
835.2422463502685	0.10406666666666663	-0.031333333333333366	1.1
835.0303342404711	0.11769999999999996	-0.024133333333333354	1.1
835.0303342404711	0.1256333333333333	0.013066666666666678	1.1
835.0303546733018	0.13543333333333327	0.05360000000000004	1.1
835.0303777542642	0.15453333333333327	0.15613333333333346	1.1
834.5149597263411	0.17173333333333327	0.2828000000000002	1.1
834.3046514459729	0.21569999999999992	0.7687999999999998	1.1
834.3046514459729	0.21569999999999992	1.0530666666666668	1.1
833.9863164465645	0.21786666666666663	1.2617333333333336	1.1
833.8930759235978	0.21213333333333323	1.2617333333333336	1.1
833.888751633338	0.2068666666666666	1.275466666666667	1.1
833.3791191767377	0.19823333333333326	1.2318666666666669	1.1
833.3791191767377	0.19326666666666661	1.4641333333333333	1.1
833.3791191767377	0.18293333333333328	1.48	1.1
833.3762452292216	0.1856666666666666	1.4805333333333333	1.1
832.9587179546847	0.17566666666666658	1.4486666666666668	1.1
832.9623370098378	0.18326666666666658	1.3997333333333335	1.1
832.9623370098378	0.1735666666666666	1.3998666666666668	1.1
832.9623370098378	0.1737666666666666	1.4090666666666665	1.1
832.5503806877276	0.1737666666666666	1.4030666666666667	1.1
832.2393909643515	0.1646333333333333	1.4112	1.1
832.1410468409026	0.16769999999999996	1.4112	1.1
831.7268840300765	0.16883333333333325	1.3762666666666667	1.1
831.7268840300765	0.1572666666666666	1.3212000000000004	1.1
831.7335128431188	0.15989999999999996	1.308266666666667	1.1
831.5261907033557	0.1640999999999999	1.3901333333333337	1.1
831.2128033804285	0.1732666666666666	1.4837333333333333	1.1
831.2147724479939	0.16046666666666662	1.5036	1.1
831.2147724479939	0.16509999999999997	1.4853333333333334	1.1
830.4965089438708	0.1621333333333333	1.462	1.1
830.3949918985882	0.16939999999999994	1.48	1.1
830.3951413485654	0.16939999999999994	1.4833333333333334	1.1
830.0860793936004	0.15813333333333326	1.4959999999999998	1.1
830.0860793936004	0.1695666666666666	1.4959999999999998	1.1
829.9856603124368	0.16199999999999992	1.3221333333333336	1.1
829.4828295758164	0.1608999999999999	1.3949333333333334	1.1
829.3794213121969	0.16119999999999995	1.4086666666666667	1.1
829.3772572659873	0.1560666666666666	1.448	1.1
829.269888230169	0.15766666666666662	1.4924	1.1
829.269888230169	0.15833333333333327	1.4125333333333332	1.1
829.269888230169	0.15483333333333327	1.3882666666666668	1.1
828.7560889556196	0.1634333333333333	1.3944	1.1
828.5633456388191	0.15849999999999995	1.4329333333333334	1.1
828.6591297204743	0.15849999999999995	1.394666666666667	1.1
828.6591297204743	0.16269999999999996	1.48	1.1
827.9446368600744	0.15839999999999993	1.4798666666666667	1.1
827.8425873606766	0.1536666666666666	1.4798666666666667	1.1
827.3421811601697	0.17163333333333328	1.48	1.1
827.3421705466451	0.1657333333333333	1.3988	1.1
827.3421705466451	0.17199999999999993	1.3200000000000003	1.1
826.9287593168589	0.15393333333333328	1.3436000000000001	1.1
826.9297524631762	0.15999999999999995	1.3990666666666667	1.1
826.4291864344607	0.17173333333333327	1.4332	1.1
826.1220122898027	0.15459999999999993	1.4715999999999998	1.1
825.7143888684466	0.16743333333333324	1.4811999999999999	1.1
825.7143888684466	0.16743333333333324	1.3621333333333336	1.1
825.7116928795837	0.16856666666666661	1.3473333333333335	1.1
825.6188710858543	0.16529999999999995	1.3473333333333335	1.1
825.6205768823279	0.16263333333333327	1.3949333333333334	1.1
825.6205768823279	0.16429999999999995	1.4786666666666666	1.1
825.6205768823279	0.16313333333333327	1.4771999999999998	1.1
825.2114109437276	0.16259999999999997	1.3921333333333332	1.1
824.8070715067524	0.16089999999999993	1.303466666666667	1.1
824.8070715067524	0.16946666666666657	1.3481333333333334	1.1
824.306518386807	0.17046666666666663	1.4696	1.1
824.306518386807	0.1625666666666666	1.3366666666666667	1.1
824.4014879514323	0.1687666666666666	1.3076000000000003	1.1
824.0950334394544	0.1687666666666666	1.3589333333333335	1.1
824.0961432653363	0.16993333333333324	1.3725333333333334	1.1
823.8992071096229	0.1637333333333333	1.3725333333333334	1.1
823.8992071096229	0.16229999999999994	1.3697333333333335	1.1
823.8992071096229	0.1637333333333333	1.4170666666666667	1.1
823.4996674928163	0.16663333333333327	1.48	1.1
822.6930663683033	0.17289999999999991	1.4789333333333334	1.1
822.1939237087977	0.18013333333333326	1.3924	1.1
822.1966363209427	0.1698666666666666	1.319066666666667	1.1
822.1966363209427	0.16619999999999996	1.314266666666667	1.1
822.1939151433979	0.1741999999999999	1.3200000000000003	1.1
822.1938579843935	0.1713666666666666	1.3605333333333334	1.1
821.8916760567771	0.1713666666666666	1.4001333333333332	1.1
821.8852037588184	0.1730666666666666	1.4247999999999998	1.1
821.8852037588184	0.17909999999999995	1.4247999999999998	1.1
821.5822929520809	0.17929999999999996	1.4063999999999999	1.1
821.5820159613468	0.17533333333333326	1.3984	1.1
821.0865184705748	0.1736666666666666	1.4136000000000002	1.1
821.0842953025966	0.1847666666666666	1.3942666666666668	1.1
820.683116352942	0.17713333333333325	1.4057333333333335	1.1
820.683116352942	0.18563333333333323	1.3770666666666667	1.1
820.5880769177386	0.1813666666666666	1.3528	1.1
820.4863293363208	0.17739999999999995	1.3214666666666668	1.1
819.7888929213077	0.17966666666666659	1.3864000000000003	1.1
819.7888929213077	0.17966666666666659	1.382266666666667	1.1
819.7888929213077	0.18359999999999993	1.384266666666667	1.1
819.7889478099673	0.17276666666666662	1.384266666666667	1.1
818.6965351911687	0.18229999999999993	1.3246666666666669	1.1
818.5933215333337	0.18199999999999994	1.3744	1.1
818.4975820784023	0.1795666666666666	1.317066666666667	1.1
818.4975820784023	0.17013333333333325	1.2248	1.1
818.491865434812	0.17196666666666657	1.239866666666667	1.1
818.2928395952022	0.17819999999999994	1.2341333333333333	1.1
818.2872511804508	0.17549999999999993	1.2385333333333335	1.1
818.1934719762393	0.17773333333333327	1.3185333333333336	1.1
818.1934719762393	0.1833666666666666	1.3768000000000002	1.1
817.7980432997479	0.1833666666666666	1.205466666666667	1.1
817.4987569312422	0.1747666666666666	1.1662666666666668	1.1
817.3046932568603	0.17859999999999995	1.1662666666666668	1.1
817.0033275201594	0.17279999999999995	1.2088000000000003	1.1
817.0033275201594	0.17769999999999994	1.2393333333333336	1.1
816.9081908539089	0.18593333333333326	1.292266666666667	1.1
816.2081891935997	0.19103333333333325	1.3201333333333336	1.1
816.2060509109331	0.1847666666666666	1.16	1.1
815.3187737097027	0.17679999999999993	1.1646666666666667	1.1
815.3187737097027	0.20026666666666662	1.4	1.1
815.3187737097027	0.1959666666666666	1.3884	1.1
815.3203149573085	0.1959666666666666	1.3778666666666668	1.1
815.1335530990193	0.19209999999999994	1.2761333333333333	1.1
814.7341499815869	0.18619999999999992	1.2761333333333333	1.1
814.739491173348	0.2020666666666666	1.353866666666667	1.1
814.739491173348	0.1945999999999999	1.4009333333333331	1.1
814.7384939282475	0.18806666666666658	1.4013333333333333	1.1
814.7396045072729	0.1990666666666666	1.4008	1.1
814.5322717238064	0.20169999999999993	1.3913333333333333	1.1
814.5322717238064	0.19793333333333327	1.339466666666667	1.1
814.5322717238064	0.18653333333333327	1.2397333333333336	1.1
814.0453757517425	0.18379999999999994	1.239866666666667	1.1
813.1658004751717	0.1873666666666666	1.274666666666667	1.1
813.2121009221299	0.1873666666666666	1.3245333333333336	1.1
813.1628979885413	0.1974666666666666	1.303866666666667	1.1
812.8597902136116	0.19283333333333327	1.303866666666667	1.1
812.8597902136116	0.19259999999999994	1.2904000000000002	1.1
811.8885991838816	0.1927666666666666	1.3204000000000002	1.1
811.7989360358367	0.19809999999999992	1.3449333333333335	1.1
811.4981118740442	0.20183333333333328	1.318266666666667	1.1
811.502095995262	0.19043333333333326	1.1602666666666668	1.1
811.502095995262	0.17963333333333326	1.1566666666666667	1.1
811.4989855843246	0.18573333333333325	1.1732	1.1
811.4082197562243	0.19669999999999993	1.2932000000000001	1.1
811.3102556686538	0.20129999999999992	1.3201333333333336	1.1
811.2192838841172	0.20129999999999992	1.3212000000000002	1.1
811.2192838841172	0.19953333333333326	1.3456000000000001	1.1
811.1072150071977	0.19706666666666658	1.3456000000000001	1.1
811.1076746734991	0.21176666666666658	1.48	1.1
810.7182041091278	0.18839999999999993	1.3913333333333335	1.1
810.6289723337654	0.1852666666666666	1.1857333333333335	1.1
810.6289723337654	0.18759999999999993	1.2770666666666668	1.1
810.138288539724	0.1919666666666666	1.2569333333333335	1.1
809.7505861732652	0.19899999999999993	1.1662666666666668	1.1
809.7505861732652	0.18726666666666658	1.2006666666666668	1.1
809.4556630008976	0.1804999999999999	1.1613333333333336	1.1
809.4556630008976	0.18569999999999992	1.1750666666666667	1.1
809.4577869045153	0.18569999999999992	1.243466666666667	1.1
808.2931859709853	0.19293333333333326	1.292266666666667	1.1
808.1968979780937	0.19159999999999994	1.292266666666667	1.1
808.2859180693059	0.18609999999999996	1.279066666666667	1.1
807.9928004284891	0.19263333333333327	1.2122666666666668	1.1
807.9928004284891	0.19653333333333325	1.1649333333333334	1.1
807.8977362120073	0.18203333333333327	1.1764000000000003	1.1
807.8995853362367	0.19129999999999994	1.1685333333333334	1.1
807.8112920367909	0.18303333333333324	1.2365333333333335	1.1
807.807095335243	0.19173333333333328	1.2597333333333336	1.1
807.807095335243	0.18286666666666662	1.3186666666666669	1.1
807.7155607288088	0.18936666666666657	1.2384000000000002	1.1
807.5148567750745	0.19979999999999995	1.1601333333333335	1.1
807.4225940578142	0.19979999999999995	1.1602666666666668	1.1
806.9365054471109	0.1861666666666666	1.1602666666666668	1.1
806.9365054471109	0.1803666666666666	1.2852000000000001	1.1
806.9406027088017	0.19306666666666658	1.1889333333333336	1.1
806.6059978779145	0.18699999999999994	1.1825333333333337	1.1
806.0769691577837	0.1860666666666666	1.2476000000000003	1.1
805.982072886286	0.1946666666666666	1.2198666666666669	1.1
805.8716212139592	0.1959333333333333	1.2373333333333334	1.1
805.8716212139592	0.20103333333333326	1.2354666666666667	1.1
805.7782211820892	0.18853333333333328	1.315466666666667	1.1
804.7321222738535	0.20243333333333324	1.2282666666666668	1.1
804.826555491335	0.20243333333333324	1.1734666666666669	1.1
804.6349779392815	0.18609999999999993	1.1601333333333335	1.1
804.6349779392815	0.1813333333333333	1.1601333333333335	1.1
804.6277565449759	0.1871333333333333	1.1565333333333334	1.1
804.6277565449759	0.1799666666666666	1.0929333333333333	1.1
804.4385537939258	0.16993333333333327	1.0862666666666667	1.1
804.2494357745379	0.18859999999999993	1.1405333333333336	1.1
804.2494357745379	0.17679999999999993	1.1558666666666668	1.1
804.0129403425475	0.1875999999999999	1.1593333333333335	1.1
804.0559205347931	0.1892999999999999	1.1608	1.1
803.672482910419	0.1868999999999999	1.2190666666666667	1.1
803.1963538492072	0.18553333333333324	1.1658666666666668	1.1
803.1963538492072	0.18553333333333324	1.2481333333333335	1.1
802.7227271180117	0.1908999999999999	1.2733333333333337	1.1
802.7192292981664	0.19869999999999993	1.2733333333333337	1.1
802.7201520963404	0.19523333333333326	1.3162666666666671	1.1
802.3377102176566	0.19903333333333326	1.3124000000000002	1.1
801.3879067976695	0.18596666666666659	1.1609333333333336	1.1
801.3879067976695	0.1798666666666666	1.1065333333333334	1.1
801.3867333678193	0.18023333333333327	1.0910666666666666	1.1
801.2845187319197	0.1853666666666666	1.16	1.1
801.2852091915696	0.18743333333333326	1.204266666666667	1.1
801.1873495758657	0.18566666666666662	1.1769333333333334	1.1
801.1873495758657	0.18023333333333327	1.1149333333333333	1.1
801.0987751706684	0.18023333333333327	1.0814666666666668	1.1
801.099991015317	0.18099999999999994	1.0736	1.1
800.8118375362849	0.1755666666666666	1.0736	1.1
800.8150797769079	0.17156666666666662	1.0761333333333334	1.1
800.8150797769079	0.17989999999999995	1.1308	1.1
800.5251008762302	0.17896666666666658	1.156266666666667	1.1
800.5195192143246	0.1887666666666666	1.1612	1.1
800.4271746489503	0.1701666666666666	1.1514666666666669	1.1
