wavelength(nm)	flourescene PD(V)	ti_saph Power (V)
779.7607999518349	0.3076297380030155	0.9913492100313306
781.5067740034333	0.34978059586137533	1.1477920319885015
779.9466810541348	0.28509789519011974	0.9001563591882586
781.5061827103436	0.34502660017460585	1.1330947233363986
784.1020722653195	0.2811467149294913	0.9438006225973368
781.292837169737	0.4242018940858543	1.5041628628969193
784.1020175846085	0.279050272423774	0.9364470336586237
781.9578431644155	0.30949557200074196	1.0460170712321997
784.6814770763237	0.27946586022153497	0.938337535597384
781.8714058589923	0.34632146172225475	1.1539863981306553
787.9480633692501	0.33671604841947556	1.1526718102395535
785.0455843013272	0.4602114032022655	1.542329242452979
787.9484508491877	0.33896294282749295	1.162770502269268
785.0456264531521	0.46024839812889695	1.4789364729076624
787.9491040114773	0.34232465317472816	1.075657095760107
785.0431839629038	0.4356546443887055	1.3512013647705317
788.314960470796	0.40658682957291603	1.4126419723033905
790.7171514894134	0.33221486071124673	1.1649730112403631
788.3137862550653	0.4011965044774115	1.3907748367637396
790.7172639531459	0.3384930919855833	1.1850470770150423
788.1248622964791	0.3291762499138713	1.1624017860740423
790.7168320950518	0.45458060037344694	1.5817127898335457
791.3929126226267	0.4381839418783784	1.5794067028909922
792.8424150940361	0.3524110154248774	1.2527696192264557
791.3696739612718	0.4305923474021256	1.3230559937655926
792.8424376654555	0.3564238562248647	1.1625522375106812
794.719393042702	0.3294019256718457	1.1888416353613138
791.3696674410055	0.41261102305725217	1.44369400665164
794.5392303795886	0.3278961842879653	1.1881325542926788
793.5951355781685	0.34644724894315004	1.2389133609831333
795.8691601958307	0.43545609759166837	1.5595854353159666
797.9119800686767	0.3756753788329661	1.3823742549866438
796.0264356809299	0.345760356169194	1.2564272973686457
797.9117715569009	0.3737774817273021	1.381934005767107
795.8685708227015	0.4741441230289638	1.692324886098504
799.2289940335302	0.37786801205947995	1.38228546269238
797.8424667164533	0.32580590760335326	1.2063679099082947
799.4283633883116	0.38925170339643955	1.4877514019608498
797.8424118243012	0.3285608789883554	1.1951507069170475
801.222266089875	0.31340975780040026	1.2087430655956268
799.2255950692268	0.33623016718775034	1.2502242922782898
801.2195638509017	0.31613637041300535	1.1969783138483763
798.3145561752337	0.42382946657016873	1.5462347958236933
804.1134943366474	0.3397719250060618	1.2329865861684084
801.6065211109631	0.3706537773832679	1.4512621778994799
804.4743569667493	0.3264459385536611	1.1222252808511257
801.420478488409	0.36683331755921245	1.2832358852028847
804.3799106347675	0.4206502726301551	1.440910678356886
801.4207402319067	0.35310654109343886	1.3376903999596834
804.9482592877938	0.391958583611995	1.4881805554032326
807.2893004669103	0.49406650848686695	1.8979293201118708
804.9483366269586	0.3856593850068748	1.4715878255665302
807.6526319243992	0.48966767732053995	1.89407679438591
804.9446646305926	0.3890679576434195	1.4903719574213028
807.558463125375	0.4043522672727704	1.5745737869292498
808.4085917101311	0.4387783445417881	1.7439109683036804
807.652682166126	0.4648494771681726	1.7955759894102812
811.1434293481889	0.3969370215199888	1.5489761978387833
808.1334174313665	0.5222982112318277	2.0271245446056128
811.1434207215918	0.3968543973751366	1.548972500488162
808.2277641329517	0.5246030678972602	2.0323557779192924
811.1434169732638	0.41573595860973	1.6263399198651314
808.1334246339087	0.527436968870461	2.041497504338622
813.0983396306635	0.5192941315472126	2.018987875431776
811.7374292430299	0.4559913850389421	1.7491483800113201
814.0717762922002	0.5265169972553849	1.9547540582716465
811.5269105336644	0.49333521677181125	1.8371780756860971
814.7684633274689	0.36928985826671124	1.4844550527632236
813.0982515194646	0.35253680124878883	1.4105208721011877
815.2606401916038	0.3750489098019898	1.5073876827955246
813.0977926189782	0.4344658353365958	1.678037004545331
817.8227283929756	0.3438217635266483	1.4519885294139385
815.2605915953975	0.408191223628819	1.6390998680144548
818.6245703391502	0.3597436370328069	1.50749496743083
815.2606482139381	0.37231860077008605	1.4772531483322382
818.317365791727	0.3577113188803196	1.4523893278092146
815.260639856826	0.40343229845166206	1.508994547650218
819.8208346313252	0.4732081242837012	2.0180469285696745
817.7270836492498	0.43005097238346934	1.8300661947578192
819.8219120862939	0.4314518910832703	1.826521972194314
822.2270710361253	0.36902101803570986	1.5973029341548681
819.8208446879466	0.4299399834126234	1.8076872639358044
822.5119881866405	0.35585658531636	1.478779861703515
818.7159419471776	0.5029295356944203	2.014500243589282
822.2486998626111	0.3535591275431216	1.5739226508885622
824.4299255249351	0.3951797094196081	1.7149911411106586
822.1135656441057	0.5087268203496933	2.1854997873306274
824.4302785496492	0.3832460078410804	1.6680727172642946
822.1135532134115	0.5012881448492408	2.1529938131570816
825.6327337266312	0.5616928627714515	2.463939618319273
824.1231484794479	0.3374547357670963	1.4793224576860666
827.0513410133216	0.46847879188135266	1.8292214442044497
825.6331350579438	0.5530579723417759	2.2895611077547073
827.0513395856932	0.5690008187666535	2.3013517521321774
828.5757757617682	0.5347535507753491	2.397564958781004
826.754627634549	0.3769024149514735	1.6752203665673733
828.7202281107558	0.4580434332601726	2.0169469118118286
826.7546480657527	0.38434355892241	1.7235840931534767
829.5129003453528	0.49652551393955946	2.224155753850937
831.5464953346114	0.5132909002713859	2.250246614217758
829.5121973382155	0.4869595658965409	2.2032800912857056
831.7459837268577	0.5486233872361481	2.441400393843651
829.5131154676849	0.5057695982977748	2.1864061802625656
831.7430885761731	0.5765615794807673	2.5929449275135994
833.3152023566311	0.6058587674051523	2.769196677953005
831.5461619562702	0.4593851580284536	2.075346417725086
833.3107963152609	0.605903166346252	2.7718813605606556
835.3803357058702	0.40527346916496754	1.7443882245570421
833.3107367285479	0.6125057330355048	2.6481800600886345
835.3827123569853	0.3966953130438924	1.790188129991293
833.3124570272383	0.5133143304847181	2.1400858722627163
837.1485918663775	0.5203633159399033	2.4204864986240864
834.5564617044452	0.42241374822333455	1.9626169446855783
837.0444733282735	0.5222797179594636	2.451825875788927
838.4014528770342	0.4679855117574334	2.2176358066499233
836.706988475373	0.4346557492390275	2.0479520969092846
839.7602776812515	0.5797765422612429	2.658895365893841
837.9841114002032	0.5108269574120641	2.323599949479103
839.5642943635808	0.5887628877535462	2.6784971095621586
841.2283713014062	0.6175507623702288	2.9499052204191685
839.4455349690016	0.4077990688383579	1.9461179375648499
841.2285946542866	0.6130594359710813	2.926959026604891
839.3425255476345	0.5326534165069461	2.5012945532798767
842.608313655023	0.5378205347806215	2.589680641889572
840.9279299912677	0.5957983089610934	2.832108497619629
844.6003476599868	0.5308134770020843	2.5590022690594196
842.1810371413827	0.3875153549015522	1.8777491953223944
844.5051329667069	0.5812058225274086	2.612181641161442
842.1809231141983	0.3893330944702029	1.733283231034875
845.4595633138505	0.397877954877913	1.9368528947234154
844.3915348600914	0.41154553601518273	2.012190442532301
847.2296070371697	0.3639957192353904	1.8439717758446932
845.4593139005218	0.39269233867526054	1.9483118075877428
848.5128850064598	0.5374493328854442	2.718045901507139
845.6780936773042	0.42518228851258755	2.1510700080543756
848.6167375325643	0.3978557572700083	2.011852553114295
845.4560418340918	0.4061983716674149	2.0243510752916336
849.2837835582508	0.5066476436331868	2.5784128680825233
846.8394332469828	0.39311285922303796	1.9876386318355799
852.4039695426644	0.5732171395793557	2.8213426284492016
848.9691170735468	0.46330057410523295	2.2264889664947987
852.4040911265191	0.5728521104902029	2.72052463889122
848.971634871401	0.45266173919662833	2.292206320911646
852.4039836891998	0.4985331678763032	2.472686730325222
848.6182396147228	0.40789279201999307	1.9552387055009604
852.8344161086744	0.4108956386335194	2.028553817421198
855.9858541550346	0.46520587150007486	2.357651151716709
852.8341599990179	0.40867094323039055	2.1047127079218626
855.9858904950385	0.46820502169430256	2.3999191485345364
852.834414551827	0.4061663090251386	2.1119355652481318
855.8797684925743	0.45410828711465	2.3554153479635715
852.7301410790725	0.5402326714247465	2.6872096806764603
856.497209517534	0.548821933567524	2.720649216324091
857.1291773557537	0.5287712905555964	2.724105875939131
860.1167447319605	0.5040542152710259	2.617759421467781
856.501685155827	0.5144488750956953	2.6687659062445164
860.1105066440268	0.5185677753761411	2.6778200827538967
857.5800256283825	0.4892915477976203	2.558690272271633
860.1060944544496	0.5222106575965881	2.728412214666605
857.1328366016405	0.5397665211930871	2.7765292935073376
860.6430626805977	0.46885861922055483	2.415434058755636
862.573254259606	0.4418736854568124	2.3715197257697582
860.6429423226698	0.4718503663316369	2.4794360361993313
862.5738298449164	0.4471937189809978	2.3955018371343613
860.582654174499	0.48501603677868843	2.5462275072932243
864.4569693104938	0.5280782273039222	2.876985978335142
861.8088676204469	0.49920772993937135	2.548079799860716
864.3445931434868	0.5322291925549507	2.6663451343774796
861.4272283679134	0.5130713903345168	2.5756023973226547
865.0091229143962	0.48966397577896714	2.69164427369833
868.2117352732615	0.43152341758832335	2.458844054490328
865.116468794831	0.3612469113431871	1.9912457447499037
868.3532648405605	0.3747393782250583	2.0779904201626778
864.8971353660827	0.3590382458642125	1.9973328467458487
868.2398567079457	0.49255213560536504	2.827110320329666
864.8972039122244	0.3688372718170285	2.051755290478468
868.9076429804796	0.411561569198966	2.3012370616197586
868.1327310769258	0.40221882704645395	2.17564032971859
871.9505150870013	0.386126768309623	2.303337201476097
868.8050199035963	0.5167500302195549	2.948282316327095
871.9529809293248	0.41050347965210676	2.4979365319013596
868.3550547151891	0.34441739739850163	1.9767087493091822
871.7904447826616	0.41870057629421353	2.5263322442770004
872.4084682333897	0.45406265556812286	2.6994751319289207
120.42	0.3757148408330977	2.2530077435076237
873.0561063782067	0.4679238493554294	2.740332342684269
876.2718160561352	0.46147543704137206	2.5895215682685375
873.0558479586139	0.46819515665993094	2.740782454609871
876.2718057882034	0.46607651142403483	2.609504360705614
872.9404451707063	0.41140865068882704	2.412587843835354
876.2722740691215	0.4617011114023626	2.578597854822874
872.6329621189267	0.5064984234049916	2.949640069156885
876.9269688338595	0.4179224274121225	2.3578126840293407
120.42	0.48178011225536466	2.698463886976242
880.0241166734759	0.36201766273006797	1.976797541603446
876.3838848334602	0.35404254449531436	2.007988942787051
879.9075418013754	0.4865291742607951	2.5851843915879726
876.4676081633269	0.3560181353241205	1.8515288401395082
879.9074730347053	0.5048705963417888	2.4975678250193596
876.224857474306	0.4169728634878993	2.2947775460779667
881.0586183598751	0.41355688963085413	2.295665454119444
880.0213581372135	0.37541517382487655	2.036086216568947
883.9920030824219	0.39986464101821184	2.059674920514226
880.863441631377	0.37071790685877204	1.8967922963202
883.9908375205578	0.39963403483852744	2.0224124621599913
880.8634488908032	0.3478506337851286	1.7989993654191494
884.4538836884235	0.36865229066461325	2.012170722708106
882.5627643054438	0.3810311760753393	2.095609186217189
885.2714227833975	0.37950817262753844	2.1177575048059225
884.452819369604	0.35577519284561276	1.9683710671961308
888.5492489729288	0.33619563607499003	1.8560510035604239
885.2728037850464	0.37807025806978345	2.1063553150743246
888.5492463276704	0.3213898092508316	1.809622161090374
885.272803795458	0.3929772088304162	2.0172971449792385
888.5492824493407	0.32184239383786917	1.6117092054337263
885.2727952179054	0.39875476341694593	2.0372799541801214
888.5492800839605	0.3331409958191216	1.7320093251764774
892.7993734283917	0.2680612076073885	1.4945451132953167
888.5492694568753	0.33754476346075535	1.8541888687759638
890.7890428448568	0.36975847464054823	2.04171209782362
888.5492655765914	0.3408398786559701	1.8816868141293526
892.7993656103693	0.277079613879323	1.5458931978791952
890.5509066585186	0.3428265671245754	1.895826706662774
892.7993630717684	0.28240704676136374	1.572642594575882
889.2486511109199	0.39987204130738974	2.1933824196457863
893.5134359121962	0.36079186107963324	2.0017945654690266
892.5623338119425	0.33409796142950654	1.8485999926924706
896.3746101812004	0.3689766223542392	2.163556158542633
893.5121727015768	0.35487372195348144	1.974107937887311
896.374630034572	0.3805070659145713	2.222860876470804
893.0363712973138	0.31178069673478603	1.6804984733462334
896.9698477324016	0.362653995398432	2.20699081197381
894.8163293297232	0.3890716568566859	2.0843932293355465
896.9712016529096	0.36768176360055804	2.2390293926000595
897.9294760706263	0.25494239619001746	1.6586633864790201
896.971199163245	0.38126918440684676	2.313327372074127
901.3016971788803	0.27188043389469385	1.7910920586436987
898.0514133220381	0.24292114120908082	1.5849425476044416
901.3016973208289	0.28843371057882905	1.8489921484142542
897.9283072653662	0.3335097236558795	2.12009565718472
901.3016900277263	0.290659636259079	1.9345221407711506
897.9283044379054	0.35835505137220025	2.2831447683274746
902.1501207309279	0.24651592643931508	1.572123410180211
901.1789506108075	0.25511751184239984	1.689963297918439
905.1897782658609	0.32795661222189665	2.1498380303382874
901.7805136391128	0.29143039137125015	1.9423443358391523
905.1897836341085	0.33626839611679316	2.1920727472752333
901.5442269350237	0.2314979878719896	1.5762694329023361
905.1897797414233	0.33334323996677995	2.178468080237508
901.5442466644663	0.2372706076130271	1.600329214707017
905.7982495065578	0.3365544998086989	2.214050892740488
906.9018513884739	0.2239199576433748	1.513763340190053
905.7982955383626	0.304386415053159	2.021064570173621
909.354209651897	0.30680349189788103	2.025665655732155
906.1700496225227	0.3020457969978452	2.0396501757204533
909.3542192623953	0.3222419526427984	2.122994912788272
906.0444109784639	0.2647315594367683	1.7844845615327358
909.3542135543191	0.33065239153802395	2.1666552238166332
909.8484721857434	0.21939040650613606	1.4683753326535225
911.2051674230161	0.23020312446169555	1.5624168831855059
909.8492119882925	0.21145598241128027	1.4321549460291862
911.2051564982748	0.22230939660221338	1.5555294398218393
914.1839595795974	0.2294656694866717	1.4994618967175484
911.2051644883076	0.23041646857745945	1.4621871206909418
914.1854402521386	0.22466357937082648	1.4171838611364365
911.2051603648958	0.23984676762484014	1.5130308251827955
914.1841860402707	0.22720151022076607	1.4058741610497236
911.2051510574541	0.2505583637394011	1.6757531054317951
915.1784798595131	0.2074838373810053	1.4311005473136902
914.1841702489637	0.22742841998115182	1.5325672179460526
