wavelength(nm)	flourescene PD(V)	ti_saph Power (V)
120.42	0.4180901418440044	2.16243520565331
880.3631709479422	0.393559280782938	2.0693580266088247
120.42	0.4576944378204644	2.4072604030370712
880.3632216445974	0.39109780732542276	2.0435100849717855
120.42	0.5936241718009114	3.107798296958208
860.9839531111769	0.5150334145873785	2.645524963736534
120.42	0.4155016504228115	1.9867322258651257
843.5524543602447	0.4093356388621032	1.9539167042821646
781.9532397333876	0.3299026065506041	1.0774957947432995
784.919178608989	0.4415407204069197	1.4481212124228477
787.5778052375451	0.37595284916460514	1.3409201595932245
784.9209821729796	0.4381814752705395	1.4352367110550404
787.5777792332813	0.4464624309912324	1.5002363473176956
784.9198580101187	0.3886129059828818	1.2635342460125685
787.1209004283979	0.3684044177643955	1.225419657304883
788.0348300011838	0.4709081989713013	1.576334809884429
786.3868285518859	0.3568283449858427	1.1757548991590738
789.5094452379544	0.44632554426789284	1.4891621805727482
787.9450283483853	0.3225810849107802	1.0790693536400795
790.9974499026514	0.3485264275223017	1.192068938165903
788.3126011876581	0.41735761892050505	1.4148555733263493
790.9972759267024	0.34983485843986273	1.1904152072966099
791.3679977708372	0.31446784269064665	1.0858396487310529
790.714125760611	0.28479329543188214	0.9889654330909252
794.0517737581121	0.33120486699044704	1.1608652155846357
791.4571136866854	0.3271685945801437	1.1458583632484078
794.6501342700452	0.295593683142215	1.0637098224833608
792.7547603893341	0.3131335200741887	1.098317189142108
794.6484801743693	0.29280787892639637	1.050699533894658
792.7539750453719	0.3092748271301389	1.0823040530085564
797.1810012430028	0.433577929623425	1.4923549443483353
794.6501253801422	0.3053692770190537	1.0807021241635084
797.464623531293	0.4496231283992529	1.5755862444639206
794.648478339451	0.2974163545295596	1.0609449874609709
797.4646211493501	0.4493715544231236	1.576340964064002
798.0286186337157	0.49630353692919016	1.7726951502263546
800.3923923698769	0.34582571499049664	1.2431888692080975
798.1301858960178	0.340559939853847	1.2135377489030361
799.4082947119687	0.34570486191660166	1.2423317898064852
797.8416440195274	0.3384437649510801	1.2163691837340593
800.3923989555448	0.3402652069926262	1.2282190266996622
801.4013592097631	0.3990051024593413	1.4504852648824453
799.1390431760035	0.344713366124779	1.27060541883111
802.6791584346339	0.33740294352173805	1.2612799499183893
801.2189580555446	0.34784693270921707	1.2213772162795067
802.934831715312	0.332557690795511	1.2330581117421389
804.55838217275	0.4243831755593419	1.575525812804699
802.9753085431648	0.44616769487038255	1.6010913327336311
804.854534602667	0.5373531440272927	1.990435527637601
804.084017534382	0.4988550334237516	1.8432466629892588
806.2847700044691	0.35802455386146903	1.3482614140957594
804.8545424339932	0.4173156921751797	1.5560621805489063
806.2847592654666	0.32762241270393133	1.2202883008867502
807.9270463346016	0.3545444547198713	1.332628108561039
806.2843601628547	0.5047127418220043	1.8691685684025288
808.0201109002335	0.3557270970195532	1.341281484812498
809.5743943290646	0.33230735175311565	1.2646022029221058
808.0198919064704	0.3570404569618404	1.345992311835289
810.8384936823649	0.3950872188434005	1.442392986267805
808.0198900620395	0.35258489893749356	1.332969706505537
811.5259012568478	0.512970270588994	1.957486828789115
808.2225141705308	0.4141907561570406	1.5533701032400131
811.5259037847693	0.5066686039790511	1.944417342543602
814.5639687770467	0.43088215216994286	1.6892492808401585
811.3239902716642	0.46899920515716076	1.8643011152744293
812.8018579170971	0.39979188377037644	1.5519963167607784
814.5639569719385	0.4309598421677947	1.6891407556831837
812.9841869702101	0.41293042339384556	1.597870210185647
814.1666603311744	0.43078102730214596	1.686713820323348
812.8009357127328	0.412448241841048	1.5958428252488375
815.2544064975064	0.5160989034920931	2.0662676114588976
817.4275376023124	0.543934746645391	2.1882338002324104
815.2825378886439	0.5253380546346307	2.0593197531998158
817.4275361717428	0.5413326909765601	2.177121415734291
815.2836099353952	0.5210354086011648	2.055440092459321
818.7164631788445	0.4933253536000848	2.001247014850378
817.4274889370606	0.4890732723288238	1.9229818284511566
818.7164398975755	0.47968860249966383	1.8933701664209366
823.5076164167002	0.43040983378887177	1.8699491918087006
818.7164534792745	0.4176461901515722	1.7647508662194014
821.8056702748632	0.37828730046749115	1.5801799148321152
818.621635279399	0.3563843937590718	1.458139754831791
821.805674531483	0.3751586666330695	1.561720110476017
818.6216552448378	0.36015182733535767	1.467463992536068
824.0559330026449	0.34565553395077586	1.4491793029010296
821.3077740148836	0.4695035833865404	1.9409939888864756
824.0559721507118	0.41835897974669933	1.7952146604657173
821.3067457827866	0.48620114335790277	2.0299128144979477
825.3225377892869	0.5494471658021212	2.315569344907999
822.5087944423833	0.36294133123010397	1.5531629249453545
825.3220896538212	0.556406126357615	2.3665955662727356
826.4364993152	0.44590502278879285	1.8271287083625793
825.0285968825334	0.50529481517151	2.1413499005138874
828.0649897209635	0.4338763658888638	1.8792685084044933
825.7720698248854	0.542319250293076	2.3050094172358513
828.064983457665	0.4608218390494585	1.978036915883422
829.4352660123983	0.5102152917534113	2.2359982039779425
828.0692240308654	0.41374310199171305	1.7817715220153332
829.4245704383243	0.4471542560495436	1.9166271388530731
831.0560564674272	0.426801482681185	1.8659314196556807
829.4243769028957	0.4312780052423477	1.879071183502674
830.9602165788199	0.4306663405150175	1.8889343477785587
833.0201550385199	0.39404886262491345	1.7476562019437551
830.5250094841887	0.3533112551085651	1.5786026529967785
832.9771542050316	0.40092519717291	1.7786379493772984
830.5250110097357	0.37047743145376444	1.6272364556789398
834.2567295687754	0.41274790838360786	1.9204007256776094
832.977121069453	0.3899990255013108	1.7193949036300182
834.5285471950641	0.43435608269646764	1.9674437064677477
836.8497485596821	0.4751356188207865	2.161044154316187
834.2366332088237	0.39005698496475816	1.7689819782972336
836.7052483250286	0.4824361759237945	2.193596988916397
833.9438564569032	0.4942009299993515	2.221720162779093
838.1535684748776	0.5271261995658278	2.3985663279891014
835.7720877087551	0.4788019279949367	2.179209219291806
837.7854428868117	0.5143909184262156	2.2759712114930153
839.2475029934208	0.47372853429988027	2.139037638902664
837.369738117622	0.5578452725894749	2.5350953862071037
839.4552710438214	0.47163208900019526	2.156931409612298
841.0288607229422	0.40757585735991597	1.9106966704130173
839.247485325898	0.6016658805310726	2.748926520347595
841.0289095147509	0.4154856186360121	1.942075490951538
842.1821958926504	0.3897486855275929	1.8251765463501215
841.0289085130393	0.4135235957801342	1.9313145745545626
842.7068136173177	0.4108956390991807	1.9297619722783566
844.6088547177951	0.46502705896273255	2.223486129194498
842.289537262	0.4975663386285305	2.2816143464297056
844.6056679165127	0.4561208705417812	2.179121647030115
842.2896316053998	0.36696650087833405	1.7443783525377512
845.2505295232392	0.3848516368307173	1.8763149846345186
844.6068084594283	0.5681129139848053	2.6877929866313934
846.9422480416564	0.39256162010133266	1.9191255997866392
845.459905130178	0.389219640288502	1.8931592870503664
847.16406355002	0.5085282726213336	2.4923747964203358
849.3034903062069	0.48513935925439	2.4292237497866154
847.1188871081507	0.5208233008161187	2.556609846651554
849.5077651578981	0.46930627105757594	2.235132483765483
847.1188793070127	0.5221662521362305	2.568716175854206
849.5105284440432	0.4537358577363193	2.282499775290489
852.8048003466778	0.5127125307917595	2.534096498042345
849.3035100042993	0.48025217605754733	2.4104926213622093
852.8043722016637	0.5132378740236163	2.5583684034645557
849.2995810134754	0.49826309690251946	2.4634500555694103
852.6233775481247	0.5442923801019788	2.697091333568096
849.1935257455217	0.47572878934442997	2.3520388416945934
855.2180720435484	0.46392210852354765	2.3249725066125393
852.2894687554603	0.39465066604316235	1.9709472302347422
854.4302827789015	0.5404028547927737	2.696578323841095
850.6529506727801	0.40510082244873047	2.02608741261065
856.1657549443931	0.5669758981093764	2.8472090624272823
853.1291560185992	0.45434629172086716	2.2682353518903255
856.2002403143356	0.4269876969046891	2.1564467754215
856.7122625805493	0.6144825555384159	3.0295047238469124
861.2565876466165	0.4616184891201556	2.3776228465139866
856.9272411501684	0.41868084529414773	2.0927087031304836
858.6778087335177	0.48055307613685727	2.419915523380041
856.6903483977433	0.5494175665080547	2.727171618491411
860.2108776357087	0.5654676943086088	2.8836070224642754
858.4413310372435	0.528260744176805	2.6425566636025906
860.2109038430964	0.5534649342298508	2.8290957920253277
861.1443765488632	0.5278846174478531	2.6909672543406487
860.2111646409641	0.5879391068592668	2.987028308212757
864.0189466534943	0.4539923625998199	2.3807835429906845
861.0121612432716	0.5027075572870672	2.5900234766304493
864.0211633198874	0.4593321308493614	2.4022190757095814
860.813652078515	0.46686946088448167	2.375848278403282
864.5684027602287	0.37995459139347076	2.0389460045844316
862.5792091110585	0.4425161802209914	2.2425649873912334
864.5683655172459	0.3694452396593988	1.96434960141778
867.9014583621407	0.5209046928212047	2.854311089962721
864.3462570352095	0.4818985001184046	2.5417065992951393
867.9014561149463	0.5078870095312595	2.8144441060721874
864.341569222728	0.4798069903627038	2.5354715287685394
868.31872248789	0.5041245082393289	2.782834656536579
865.2421658630906	0.4750455957837403	2.5491650104522705
868.3179707392504	0.508121314458549	2.776768546551466
869.1450370524861	0.4480421612970531	2.5129384547472
868.3187176155758	0.5059817088767886	2.7981263771653175
870.2594392675234	0.4432376064360142	2.5075456611812115
868.2079686263205	0.41747354157269	2.3026244156062603
872.0625804009973	0.46230908297002316	2.661266826093197
869.0306309853929	0.3939650044776499	2.2192476131021976
872.0625787725761	0.47356328601017594	2.713782738894224
868.9123040352222	0.39886574959382415	2.233315981924534
872.6255903420267	0.472681547049433	2.6589027643203735
875.9224917657785	0.4897355022840202	2.6140783093869686
872.6255666357606	0.4818405397236347	2.710085589438677
875.9225010818071	0.4870150596834719	2.621373947709799
872.6258464349872	0.4933623489923775	2.7693199925124645
875.9224988388492	0.4844610975123942	2.6094451807439327
872.6226075531231	0.3888755766674876	2.2304623425006866
876.4633061954437	0.351992960087955	1.9091872163116932
874.4124572992691	0.3835099139250815	2.1216655261814594
878.4093194360081	0.499160866253078	2.6258812956511974
876.4632943602344	0.3576829545199871	1.93817488104105
880.01697759932	0.4398610978387296	2.1781844310462475
876.3475238045683	0.46992780454456806	2.5350337475538254
880.4596846454266	0.3700766391120851	1.9533469695597887
878.4093243461728	0.5093890493735671	2.657865632325411
880.3629586043126	0.33790362533181906	1.7914558611810207
881.0538584437828	0.3850945788435638	2.0626543276011944
880.3629526712388	0.337344981264323	1.7637310046702623
884.1087716131774	0.3548576897010207	1.874524375423789
880.9400228448817	0.31741273077204823	1.6887991540133953
884.1043918276242	0.3887164928019047	2.0495071690529585
880.7465769522697	0.4229575921781361	2.261340495198965
884.3359388789329	0.43231636472046375	2.2917105481028557
882.5977186397636	0.36748321540653706	1.935611043125391
885.267982344859	0.3151128087192774	1.628320449963212
884.3359889278395	0.44982290687039495	2.382801067084074
888.663334688241	0.37342108646407723	1.964003074914217
885.2700090829385	0.3747628084383905	2.005301794037223
888.6632647748143	0.37020489294081926	1.972727982327342
885.2667739819898	0.370740104932338	2.0172022003680468
888.663264296439	0.35939587419852614	1.9055961407721043
885.2716724425527	0.37029245123267174	2.029470082372427
889.6028425371975	0.36596144177019596	1.9316154774278402
888.6633171461837	0.38812702195718884	2.0552501678466797
890.6643452144822	0.2638177559711039	1.3916442394256592
888.310863013356	0.402665245346725	2.1379474978893995
892.7935918939506	0.27728925785049796	1.4903559293597937
889.248465513895	0.3937565926462412	2.084103399887681
893.3869193128029	0.2772349966689944	1.5013030655682087
889.2508618952426	0.3149302927777171	1.6705909166485071
892.674762884623	0.3597239055670798	1.932573676109314
893.3885861387838	0.2751434864476323	1.475880602374673
896.3631945527169	0.36652501532807946	2.0798316057771444
893.3863292031425	0.3299137046560645	1.7491002883762121
895.1699903954038	0.351981861051172	1.9239646829664707
893.0315566301412	0.3312467993237078	1.7536162622272968
897.0887635646817	0.3027018611319363	1.7564070094376802
894.6980287078477	0.28821543231606483	1.5624662078917027
897.0887616673501	0.2914575217291713	1.6876078806817532
893.5039373558703	0.3267690408974886	1.7477449979633093
901.3001908771741	0.2709999270737171	1.7016774863004684
897.8066665722722	0.2546686278656125	1.551754605025053
901.2997367046071	0.27115530893206596	1.7089743446558714
897.0849262150183	0.2827498777769506	1.696610264480114
901.2977119829221	0.2670092834159732	1.708730174228549
897.0849275199644	0.2883473844267428	1.6878064256161451
900.7536010999457	0.24660964915528893	1.5643764324486256
901.3002553360857	0.3194709485396743	2.0404443573206663
899.248110681613	0.2920778230763972	1.849553257226944
903.601817584566	0.3341805855743587	2.14719651453197
901.6630480876373	0.32726108795031905	2.0878486558794975
903.601820412128	0.32688742503523827	2.0737901236861944
901.2989820952693	0.28241568244993687	1.7987823113799095
905.7966113330622	0.3457985841669142	2.1721133794635534
903.6018149807112	0.3390677641145885	2.1300303377211094
905.7967369895138	0.33141697896644473	2.0785367377102375
903.2388266615128	0.31500921957194805	1.9957296717911959
906.7714303073867	0.30492409272119403	1.9369897712022066
905.1872306681606	0.33182270266115665	2.0951529163867235
909.3517359171816	0.30552836135029793	1.9324614480137825
906.1607300957526	0.3222222193144262	2.104306975379586
909.3517352669342	0.32285855524241924	2.040536841377616
906.1607330685774	0.3237822218798101	2.0625186804682016
909.3517350296643	0.3250129581429064	2.0453315284103155
909.9695838910112	0.2841125666163862	1.8314177803695202
911.2024018872563	0.2153196046128869	1.4137272033840418
909.9695884784064	0.2747809258289635	1.7675083000212908
911.202425176501	0.19785129255615175	1.3254915568977594
914.177650943146	0.21627287147566676	1.405887732282281
911.202396115509	0.20813250145874918	1.3719943948090076
914.1776476249327	0.21603363030590117	1.4128651823848486
911.9310853802979	0.22006126772612333	1.4362183418124914
914.1776467100245	0.22027707775123417	1.4411819856613874
911.2024036285229	0.23281504749320447	1.500646997243166
915.1755140769544	0.21553788147866726	1.408888103440404
912.441964400179	0.1814903966151178	1.2221134454011917
