wavelength(nm)	flourescene PD(V)	ti_saph Power (V)
120.42	0.318099623080343	1.7019056305289268
895.0527234210812	0.37374295154586434	2.080750348046422
779.7183982349527	0.2766948533244431	0.8963802959769964
781.8669788026785	0.46438579447567463	1.4951432179659605
784.5507549966046	0.26806737342849374	0.8802783694118261
781.8677949913919	0.2725216974504292	0.8834180990234017
784.09982912298	0.3259390941821039	1.0634409869089723
781.5922283233149	0.26881099166348577	0.8688478181138635
784.8345986735953	0.3904873742721975	1.2879528813064098
783.0469812034731	0.37038124166429043	1.2047894019633532
786.3852491959061	0.3782910010777414	1.2541976645588875
784.8342605249999	0.3924592644907534	1.29322112724185
786.3852322764997	0.3749773879535496	1.2413612622767687
787.9464958592404	0.3289259094744921	1.1002002889290452
784.7666060648049	0.38402416044846177	1.2538770250976086
787.6653160683214	0.32504132157191634	1.0861097173765302
789.5127647120445	0.4352686512283981	1.456825153902173
787.9424841911382	0.31719568837434053	1.064175970852375
791.544709608247	0.3108693603426218	1.0800596261397004
787.9423691181181	0.3273387788794935	1.098182768560946
790.8894127539563	0.35106189269572496	1.1921922508627176
788.3139393399932	0.40041588386520743	1.3554275557398796
791.5443002844561	0.3097705766558647	1.0746495677158237
790.8900204976272	0.33967943442985415	1.1555168014019728
794.2753859301292	0.4640207653865218	1.6212640665471554
791.5437771346967	0.3122049174271524	1.0747580863535404
794.7164651152677	0.3437588685192168	1.206933943554759
792.8412399925455	0.3493933705613017	1.224037241190672
794.650785351581	0.34634736087173223	1.3125823996961117
793.8115852127555	0.4917320548556745	1.7122990675270557
798.0859486031694	0.49235605588182807	1.7614150531589985
794.7124720018032	0.4850801625289023	1.6303404346108437
797.1782159875713	0.34739064844325185	1.2081178352236748
794.6507748270844	0.5302375657483935	1.8408135492354631
797.9321623870414	0.34177217772230506	1.2250016015022993
797.0850176930741	0.35706511978060007	1.2588431350886822
799.2245369102134	0.34388588974252343	1.2411516197025776
797.8421909777497	0.33064622711390257	1.188234904780984
799.2254905422806	0.33521400997415185	1.2194817904382944
801.153498525835	0.32306203013285995	1.1739050894975662
799.2255149294226	0.4241722961887717	1.5164837818592787
801.1535112440238	0.3553176736459136	1.3207609970122576
798.3144095366342	0.426554842852056	1.5213894676417112
803.787971790316	0.49489275366067886	1.8149446602910757
801.4008101559546	0.40043314965441823	1.477078041061759
804.304430274419	0.45924334041774273	1.7462417297065258
801.6031297976774	0.4061922035180032	1.4930110108107328
804.3039645593914	0.4991399007849395	1.8342208489775658
801.4011588482034	0.4005688037723303	1.470971217378974
804.8550754431695	0.5280079366639256	1.966650752350688
808.222719613097	0.41617744555696845	1.5613119322806597
804.8550660844426	0.5310403853654861	1.9797818884253502
807.7472913566285	0.33978549018502235	1.2769181858748198
804.8550681546865	0.5311168413609266	1.975161086767912
807.5380695777152	0.3628944708034396	1.3675437700003386
804.8550664673058	0.5313449874520302	1.9714281782507896
808.2226617101218	0.4303346066735685	1.6237427983433008
811.2276267214689	0.5017653927206993	1.9208927899599075
808.2226598359828	0.43015209306031466	1.624503681436181
811.229073415646	0.5056351814419031	1.9319250136613846
808.2226578443705	0.4306133105419576	1.6218991596251726
811.2290674998706	0.50460175704211	1.9328597839921713
808.2226585039941	0.4298425610177219	1.6151103787124157
813.9804540386285	0.4002111740410328	1.5526573155075312
811.530074014245	0.44469524919986725	1.7018711026757956
814.0697500292006	0.528850213624537	2.0529391448944807
811.7385001359319	0.4528257525525987	1.7387722246348858
814.0697466915537	0.5332256183028221	2.0719255451112986
815.249463390684	0.32331977039575577	1.2736280150711536
812.9860677625531	0.417013555765152	1.6155765354633331
815.2494613502801	0.32212356524541974	1.271349050104618
816.2349611711567	0.3740401524119079	1.5092794131487608
814.7671218578362	0.424569389782846	1.648889023810625
818.6201836707627	0.34716374101117253	1.4185280464589596
816.2349494647282	0.36863379552960396	1.493501827120781
818.6201859910246	0.35104462783783674	1.431244833394885
816.233638358548	0.36900005489587784	1.5012401696294546
821.0018115030435	0.4499055319465697	1.885803235694766
817.8632738408246	0.3056467450223863	1.265490099787712
819.8464830607968	0.4552637957967818	1.9046576768159866
817.8212927087069	0.3686054334975779	1.5154392663389444
820.8109098186023	0.5140678202733397	2.145027320832014
822.2069134908486	0.508312463760376	2.1309133172035217
818.7175322484703	0.5125756449997425	2.089189153164625
822.2069136531713	0.506035971455276	2.118422217667103
824.3145120536841	0.45188235444948077	2.055281013250351
821.8030217973275	0.37427692487835884	1.5729422532022
824.3145125407021	0.3424862055107951	1.4583099316805601
822.2032950489335	0.37128764763474464	1.5583386719226837
825.62605880366	0.5781462462618947	2.466941252350807
824.3143356411678	0.3719585072249174	1.602907845750451
826.8437848435209	0.4047653912566602	1.736776888370514
825.2247097174981	0.4390447186306119	1.826565133407712
826.8448684024962	0.41078588552773	1.7643858380615711
828.2823782876133	0.5062641119584441	2.1817039847373962
826.8439926913672	0.4151563527993858	1.7740035858005285
828.7871143211366	0.5954493070021272	2.566877491772175
826.43891419417	0.49674995662644506	2.1162308026105165
829.8984686664342	0.565503453835845	2.4530911296606064
828.2830312505541	0.5004064030945301	2.165878303349018
831.9474305015235	0.4537420221604407	1.9977570492774248
829.8985387325606	0.5614203261211514	2.4328604489564896
831.9468705632239	0.4546397947706282	2.0106094870716333
829.8985369649484	0.561792753636837	2.438584979623556
833.387614132376	0.5928842537105083	2.6171662509441376
831.1266469112957	0.4115307410247624	1.8188773412257433
833.3876180928694	0.598178394138813	2.640661232173443
837.0519192790289	0.5388120245188475	2.4414361529052258
833.0180146945742	0.571189752779901	2.524882011115551
835.0853833204249	0.36241105338558555	1.6392305791378021
833.0017310450721	0.5772558767348528	2.531078863888979
836.8056357389372	0.4593765255995095	2.0691520757973194
834.258542988725	0.43442514166235924	1.940112242475152
836.8054672324332	0.44912491412833333	2.0423891358077526
838.3068114981887	0.3932534442283213	1.782036665827036
836.6771977529158	0.46419217996299267	2.0997983776032925
838.3068074685516	0.3714245310984552	1.6955632753670216
839.5554464237366	0.6278837667778134	2.870115801692009
837.980467103938	0.43980313651263714	1.9925837684422731
841.1941353534222	0.557245934382081	2.5839906446635723
839.4556771451239	0.49796713003888726	2.2729054763913155
841.2385300774	0.5433687111362815	2.5171288922429085
839.4556720698359	0.4977685837075114	2.2747910358011723
842.9090959057177	0.58612260222435	2.7705433405935764
841.2385420809924	0.5451802825555205	2.519654467701912
842.9090913689814	0.5866812439635396	2.7772840298712254
844.813568897766	0.5695754904299974	2.708354167640209
842.7117714423147	0.4912215108051896	1.9797066785395145
844.8851460348075	0.5938695762306452	2.825780939310789
842.9090853541503	0.5495100533589721	2.6315959617495537
845.8828280516933	0.4935140353627503	2.592862317338586
844.5066385178369	0.614108900539577	2.9093427285552025
848.5218657129061	0.4391914699226618	2.3694997541606426
845.6613223086549	0.5827448591589928	2.7829851023852825
848.6138243610386	0.3857777724042535	1.900207044556737
845.4620649976098	0.4386180303990841	2.075641170144081
848.6138047596453	0.4165412401780486	2.012206494808197
849.5101296255866	0.4939518216997385	2.471147693693638
847.0557799737228	0.547565296292305	2.629081442952156
852.3972674259998	0.5129641052335501	2.545640502125025
849.6579547631958	0.47953445417806506	2.4080176055431366
852.6950343483321	0.5136214019730687	2.5436538383364677
849.5102089155525	0.48094769893214107	2.406525418162346
852.8061933210039	0.5085492366924882	2.5299467965960503
849.5102072233639	0.4815692352131009	2.4093778245151043
852.8061608106185	0.5130072645843029	2.5490466207265854
854.5390630182142	0.44981304183602333	2.257174748927355
852.592148407912	0.38641040539368987	1.9585782084614038
854.5416501272346	0.44026065431535244	2.2204844877123833
857.1290986415482	0.4839616506360471	2.4172937348484993
854.6472592985576	0.46947275288403034	2.354688998311758
856.6020944553712	0.4384059188887477	2.17677734605968
854.5416477558582	0.43600980611518025	2.189330119639635
857.1272530528322	0.5061839604750276	2.5306780710816383
860.142349336946	0.481929331086576	2.43025716021657
856.4930552724221	0.43316604010760784	2.1637189630419016
858.3494091627183	0.4462836137972772	2.234492462128401
860.1042588727242	0.5060384357348084	2.561161585152149
857.0830449062066	0.4814644120633602	2.4090818352997303
860.1423483907729	0.4867659513838589	2.441832013428211
860.7485000118617	0.5691623715683818	2.8779429383575916
860.1042310560889	0.4972420050762594	2.515984456986189
862.4702773213543	0.40943306079134345	2.1207209024578333
860.7065036453909	0.4897540006786585	2.493843551725149
862.4701465833847	0.40831454563885927	2.1213189903646708
864.3481251856631	0.5238520437851548	2.755933605134487
862.4704774337878	0.47308233566582203	2.448096673935652
864.3494564094659	0.5269782105460763	2.7799539044499397
861.3682563305243	0.3904639412648976	2.0006020478904247
864.8940517944831	0.49936187779530883	2.648457530885935
868.3187649774218	0.5494138654321432	3.0332549028098583
865.3033543667848	0.49666240019723773	2.627861823886633
868.3187619049968	0.3593095503747463	1.9854718893766403
865.004104672609	0.5021156240254641	2.6752155534923077
868.3187645898454	0.517115063033998	2.900604262948036
865.0041421361726	0.49806208442896605	2.6409954205155373
868.9254431386526	0.4150527655147016	2.242957152426243
867.983199300661	0.513818709179759	2.8469476215541363
871.9648049946276	0.4426481365226209	2.4515484124422073
868.8027144404765	0.5038347002118826	2.771676655858755
871.9652401583285	0.4234163430519402	2.436505798250437
868.7979477367802	0.5057868612930179	2.7769646160304546
872.4036769751772	0.4636508044786751	2.629866998642683
868.6886552271177	0.4308118592016399	2.3780014477670193
872.403689119235	0.47171594854444265	2.694776613265276
874.4122344478074	0.35338894510641694	1.9718228112906218
872.4037110178739	0.4589042095467448	2.6401469819247723
874.4122326029856	0.3549958076328039	1.9713480304926634
872.4037325080569	0.4591397508047521	2.596099454909563
876.2351827737159	0.3654965250752866	1.9816822577267885
872.9384763119928	0.397352609783411	2.2191440127789974
876.4589072111581	0.4212138424627483	2.240996364504099
872.9390670687977	0.3923260783776641	2.201817534863949
880.3630420893938	0.34996064379811287	1.824577208608389
120.42	0.41790639655664563	2.254026371985674
878.2935933194068	0.4497797447256744	2.3543239440768957
880.3630468425497	0.35025784373283386	1.8318617418408394
876.8072943270188	0.358680616132915	1.9411493558436632
880.3630573800118	0.3514084219932556	1.8264060523360968
876.807281944887	0.36780138220638037	1.978860691189766
880.9394828623682	0.3675424079410732	1.8915129657834768
880.0178427275926	0.3668382503092289	1.9124095737934113
882.3634969110185	0.3638489688746631	1.9141237363219261
880.7419684144883	0.45298113813623786	2.386894065886736
882.6964893540563	0.38283535093069077	2.0294515769928694
884.333076155723	0.43736879667267203	2.311816707253456
882.5593802138594	0.35900371335446835	1.9022566229104996
884.333075596693	0.4252464175224304	2.246690057218075
885.3850521398311	0.28787506744265556	1.5455244723707438
884.4553016817054	0.33618083875626326	1.7929406221956015
886.6673111875671	0.28778011118993163	1.5281979776918888
884.4523793815213	0.34509689221158624	1.836319763213396
886.6673240166285	0.2866147346794605	1.5332873929291964
888.6616787789458	0.35743384901434183	1.8734699841588736
886.6661172933703	0.36367261968553066	1.9356801081448793
888.6617259539386	0.36407834524288774	1.9191021732985973
885.2684938006062	0.3802086338400841	2.028277577832341
890.6637527495316	0.267138768453151	1.4073219392448664
888.6616772642343	0.3604120332747698	1.9007965121418238
893.7408655342866	0.26064719073474407	1.4030378013849258
889.3662651009386	0.3369244602508843	1.7132252044975758
892.6767657978749	0.26342313224449754	1.409595975652337
889.2521171378479	0.3132358742877841	1.709399813786149
892.6720221134095	0.3570774542167783	1.8936291355639696
889.0156335074361	0.32199284387752414	1.708811566233635
893.3879752648569	0.2764519155025482	1.4870102517306805
896.3651921293484	0.3535677590407431	1.9566568788141012
893.5034190276695	0.2708309767767787	1.4517443589866161
896.3652783329258	0.3686313251964748	2.077130902558565
893.3878058370312	0.27638285560533404	1.5001302901655436
896.3652568722079	0.3655557222664356	2.043702468276024
893.0330551849831	0.31789984554052353	1.6885537430644035
897.0854579777017	0.3052928205579519	1.7641798853874207
895.0515532289069	0.3292551748454571	1.7796726059168577
898.0443196823828	0.24410008173435926	1.515174126252532
897.0844848388557	0.3138907067477703	1.8058855533599854
901.2972754647951	0.2731210347265005	1.736699203029275
898.0418630883543	0.2477614600211382	1.5358314905315638
901.2972733821485	0.2592783370055258	1.6535727232694626
898.0418646658113	0.25943248672410846	1.606116633862257
901.2972708699384	0.263012473937124	1.6740882862359285
898.0418659029422	0.2628385932184756	1.6288260500878096
901.6587723843851	0.24699194310232997	1.5961844194680452
905.1857173926646	0.3219028217718005	2.0144237838685513
902.1458657734339	0.24125385098159313	1.5480241756886244
905.1857174946571	0.3334443629719317	2.094628818333149
902.1458670126021	0.30637803627178073	1.9779444336891174
905.1867731286525	0.34168215515092015	2.138898305594921
901.658764004076	0.32723888847976923	2.086222054436803
905.1855429609842	0.3208940611220896	1.9992023687809706
905.7950807194414	0.33717110101133585	2.1211784183979034
907.8759731830604	0.28127496922388673	1.7852466739714146
905.7950805988153	0.3403774257749319	2.150162385776639
907.7555803750745	0.23365979129448533	1.4908023476600647
905.7950772754242	0.3495820499956608	2.203054429963231
909.8468604238803	0.24395703175105155	1.5620814431458712
906.8949547538592	0.22941880719736218	1.4790277313441038
909.3514416051914	0.2970796902664006	1.8940188381820917
910.5851100231056	0.2555848970077932	1.6469676923006773
909.3514985028157	0.30674799811095	1.941912716254592
910.5841186975201	0.26024269917979836	1.6719622388482094
912.4414841751636	0.17438715207390487	1.1387316975742579
909.9716281456779	0.27541602635756135	1.7841984573751688
914.1759023957829	0.19855545181781054	1.3562944997102022
912.4414682126446	0.18376812199130654	1.2021392565220594
914.1758976086644	0.19869356974959373	1.3055482190102339
911.2019525011917	0.22783290967345238	1.477191485464573
914.1758777294849	0.2197073397692293	1.4198266174644232
916.5514692744242	0.17279755463823676	1.12333392072469
914.179833136766	0.22742595290765166	1.4597675800323486
