wavelength(nm)	flourescene PD(V)	ti_saph Power (V)
778.7812003289428	0.2568822265602648	0.8318172162398696
780.6929888439187	0.39847112679854035	1.279943235218525
781.5920824322725	0.27655796986073256	0.9011071557179093
780.3341449347646	0.3125576125457883	1.0017463322728872
784.8317438298437	0.30783691443502903	1.0408240566030145
781.7395880999674	0.2775260335765779	0.9059536438435316
783.1361690671338	0.45818525180220604	1.4941615890711546
784.746105599511	0.3607043013907969	1.1903621759265661
783.1361870373868	0.45590012753382325	1.478816857561469
784.8309845246956	0.3549933419562876	1.177852576598525
787.1207411716047	0.363326090388	1.22020073980093
785.0454531828229	0.2817941466346383	0.9483955362811685
787.1243370712656	0.3633063561283052	1.2223465200513601
784.833180898536	0.3716378752142191	1.2220591753721237
787.1207224205658	0.3647146765142679	1.2264937739819288
788.0329739731319	0.2987284827977419	1.0319043025374413
787.0816511041231	0.3755915225483477	1.258047727867961
790.3441316776633	0.3207991076633334	1.0951811522245407
788.0748468733854	0.32051547011360526	1.0756139243021607
790.2115317378295	0.31355280987918377	1.0678681880235672
787.9469107945366	0.32873106515035033	1.110906950198114
791.2622449702703	0.38457663264125586	1.3319301083683968
789.5152609992714	0.4244337361305952	1.4390066154301167
792.5993870515306	0.4898908850736916	1.7195959277451038
791.2622375576927	0.37869302462786436	1.305653041228652
794.2742989344592	0.4741749530658126	1.6670947838574648
791.5442439612194	0.34766195295378566	1.1983188055455685
794.1850679285583	0.47974779503419995	1.6885919738560915
791.5756140490215	0.30696134082973003	1.108108814805746
794.7168596533386	0.3270514393225312	1.1736633814871311
798.3128870078167	0.42463228153064847	1.5340149849653244
794.9323129012326	0.3123553702607751	1.1290954453870654
797.8442009165587	0.32976572029292583	1.185446634888649
794.8015625351194	0.3498817179352045	1.27481927908957
797.8442014108141	0.3254310148768127	1.1750347055494785
794.7168173411645	0.32847825763747096	1.1860546004027128
798.3156780829179	0.3404242885299027	1.2358019817620516
797.8441977740681	0.32745469687506557	1.1770596243441105
799.2232874262892	0.34477749234065413	1.2834492288529873
801.1526479230074	0.3057638993486762	1.1439160741865635
798.3155518681017	0.41273681120947003	1.4949348159134388
801.220985758255	0.3063126765191555	1.1444858200848103
798.3155831934673	0.41615648241713643	1.504720265045762
802.7735499264074	0.5206802533939481	1.9119150768965483
801.0416280606047	0.4910624288022518	1.8050654828548431
804.4742416781124	0.32908252719789743	1.2317620124667883
801.6385779214439	0.395120516885072	1.4733870532363653
804.4743594848084	0.32804293651133776	1.2278848253190517
801.4048535548476	0.4135235925205052	1.5319999437779188
804.8522648522919	0.529206607490778	2.016590502113104
807.3828597920326	0.4012002027593553	1.5331542138010263
804.8522588911611	0.5281645506620407	1.9933261591941118
807.382859690071	0.3983663050457835	1.5231517106294632
804.85225674904	0.497519476339221	1.889712492004037
807.3828006429638	0.4038700866512954	1.5409085918217897
808.1327245055706	0.5261840336024761	2.0025209225714207
806.2845678261667	0.33901967108249664	1.262400921434164
810.8379068037995	0.3607018361799419	1.3935433756560087
808.132722474224	0.5285863075405359	2.0156471263617277
811.2463555543982	0.44619359029456973	1.7508711628615856
808.1327270868552	0.5315127037465572	2.0205996613949537
810.7475921450012	0.3529634936712682	1.409726694226265
811.813045892927	0.4580582338385284	1.7837643716484308
810.8380337996775	0.3725479790009558	1.423458395525813
814.0727937987366	0.5280708288773894	2.0723189227283
811.5295372414838	0.4727900689467788	1.826501002535224
814.0727278997717	0.5325004989281297	2.085368689149618
811.5295326267646	0.4585835775360465	1.7740492094308138
815.2520581581688	0.3406265350058675	1.3449576646089554
814.0715534663283	0.5374049432575703	2.1183926090598106
815.2575649579832	0.3564115250483155	1.4008957277983427
817.426353526732	0.5447437250986695	2.2115869484841824
815.2575562128402	0.35774338245391846	1.417547656223178
817.4263522750498	0.534790551289916	2.1773557029664516
814.7701692182715	0.4352871491573751	1.7088053971529007
818.3166928985348	0.3502109833061695	1.457233339548111
815.3534484257515	0.5155723243951797	2.036204606294632
820.908958930897	0.41937637235969305	1.792044097557664
818.6203801363505	0.347521367482841	1.4502262882888317
821.0452812917007	0.486261572688818	2.0421794671565294
818.3166841374956	0.35393402026966214	1.4721637275069952
820.9089632681887	0.4147456963546574	1.8531159795820713
822.2068904973343	0.5182360438629985	2.1949202213436365
818.7140744842106	0.4992126617580652	2.0554252937436104
822.2068891563388	0.516726603731513	2.2011910416185856
824.3191843156574	0.4568398278206587	1.9827255476266146
822.2068915078197	0.5285246446728706	2.237363338470459
824.8228198093364	0.5319702196866274	2.251558732241392
822.2069146212376	0.48007952608168125	2.017667105421424
825.6721903284636	0.4311559242196381	1.8738017119467258
824.3191705236835	0.45963549660518765	1.9890753086656332
825.6723168368131	0.443015628028661	1.913551526144147
827.2915720174498	0.5325510585680604	2.300349172204733
825.6285603704755	0.5136892260052264	2.180988736450672
827.9676128997901	0.4927827422507107	2.152491891756654
825.6285816327921	0.5245685400441289	2.2580343037843704
829.3895132895761	0.4619070547632873	2.033458260819316
826.849310664993	0.4009745274670422	1.7564748413860798
829.3896225672812	0.4699931647628546	2.0636729449033737
830.0167441939963	0.41504166508093476	1.850067500025034
831.950052999772	0.45948504842817783	2.0603741612285376
830.0154208282464	0.4177670432254672	1.8582547307014465
831.9500652726508	0.4647853495553136	2.083751952275634
829.5356296090141	0.5536819770932198	2.4382483176887035
833.3350435970975	0.48051238199695945	2.102274641394615
831.5442078881922	0.5140937170945108	2.1664640735834837
835.0437910555877	0.47366934083402157	2.165502194315195
832.9759405048974	0.5444983229972422	2.35388370975852
834.7774466367265	0.4856831985525787	2.316237745806575
833.0193643764215	0.5732800327241421	2.1807383876293898
836.8044257818084	0.421618334017694	1.9515156727284193
834.5285563155014	0.37822687393054366	1.733635926619172
836.8043920844104	0.4238985236734152	1.9490714482963085
833.9446935508552	0.3791172467172146	1.7784196734428406
837.9811092365936	0.5176897346973419	2.402293059974909
835.80069927328	0.47066772542893887	2.140577929094434
839.562317099362	0.5171816539950669	2.41332158818841
837.786161734949	0.4332794975489378	1.9744606167078018
839.5622525239692	0.5969427190721035	2.7776909694075584
841.2371889770618	0.5645156595855951	2.638268817216158
839.2468014172451	0.5913045164197683	2.7378437481820583
841.2372026433711	0.5630419878289104	2.608041800558567
839.0400142557413	0.4985134336166084	2.299308344721794
841.8657219863242	0.35045638866722584	1.6944792829453945
845.6788503111954	0.47873780224472284	2.324470601975918
841.8657318024633	0.35740301851183176	1.7230254579335451
844.4013428505616	0.5035658688284457	2.380813155323267
841.8648288121782	0.3642596243880689	1.7427036762237549
844.3873138601994	0.41781267197802663	1.9977459590882063
845.2532805742853	0.4318576129153371	2.0888598896563053
843.1139537067595	0.5329530853778124	2.562312174588442
846.6327105412211	0.39290075190365314	1.8942716382443905
845.100444600543	0.46224742010235786	2.243163090199232
848.7218040470273	0.4078718260861933	2.0318920891731977
846.1002474934219	0.4329933933913708	2.130679016932845
848.721895830192	0.41204621782526374	2.0510091818869114
845.6611249420183	0.5509405676275492	2.7707690075039864
850.009393001609	0.3963302867487073	2.0123100616037846
848.5098668374279	0.380576123483479	1.8731024879962206
849.8227468254082	0.4075524262152612	2.0926174335181713
852.8045141027499	0.514739915728569	2.5952374637126923
848.5097409036601	0.512798854149878	2.5500467494130135
852.8047649906923	0.4987144507467747	2.526593703776598
849.5803966946861	0.4751023231074214	2.38424638658762
853.0664983814864	0.522932075895369	2.4810984060168266
849.5803693505798	0.500622212421149	2.496263101696968
856.0589395910857	0.41368514159694314	2.110284313559532
852.621933400295	0.5521059408783913	2.787182927131653
856.0589395990245	0.41003732942044735	2.096831291913986
852.6219358549814	0.5400131605565548	2.741866447031498
856.6010968479637	0.4318810454569757	2.191183615475893
854.5664846101793	0.43873394886031747	2.2542495764791965
856.6011380404032	0.4736681068316102	2.3348134756088257
858.1320476611788	0.5565245095640421	2.811218027025461
856.3833384861325	0.4999661515466869	2.515378952026367
859.9978762267499	0.45728871412575245	2.3375030905008316
857.2890311084831	0.48033850034698844	2.4370755441486835
859.9953016426452	0.4628307232633233	2.403622467070818
856.9306624203487	0.4384885407052934	2.195869777351618
859.9978677447889	0.461328683886677	2.3542006351053715
860.5273002312621	0.6025278931483626	3.0945647954940796
861.1300238431637	0.4316960643045604	2.2492415495216846
864.2421221254976	0.4220992801710963	2.2388740219175816
861.4262744915051	0.4476315062493086	2.335331402719021
864.3451578769643	0.47571029141545296	2.551075242459774
861.2431203540432	0.5791599387302995	3.0066090896725655
864.345171586178	0.48965657828375697	2.620762262493372
861.2433917232833	0.5817533610388637	3.0162515118718147
865.0072276286659	0.4949704469181597	2.668061763048172
864.1181166527188	0.5719222743064165	3.0421438217163086
868.2416605428131	0.48948886059224606	2.7867661081254482
864.889518771621	0.3514343183487654	1.9067393150180578
868.2416544468101	0.47894744807854295	2.686197217553854
864.8907065633057	0.46547717740759254	2.4851802960038185
868.2416663949831	0.48186027305200696	2.7108995132148266
864.6705526976891	0.4591903113760054	2.465508244931698
868.6912938923966	0.36026034969836473	2.032465545460582
871.9693692067524	0.42526121344417334	2.497185528278351
868.6903206841365	0.37437558406963944	2.116613110527396
872.070129777174	0.45937529392540455	2.696508027613163
868.6436605768251	0.38336809584870934	2.1608320586383343
871.8071228499603	0.44524772465229034	2.603448111563921
868.3522134547244	0.3769825748167932	2.0850283093750477
872.2607901065879	0.4046161728911102	2.3520240299403667
873.050035133683	0.47415645606815815	2.722503934055567
872.2974112503916	0.47913489351049066	2.801272287964821
876.3510173599539	0.46170974615961313	2.5369069762527943
872.9391940765879	0.3938823794014752	2.249816235154867
876.1238352429189	0.4478251184336841	2.4706741273403168
872.9412040563524	0.40616630809381604	2.3332966305315495
876.1217124635517	0.34568882873281837	1.900362428277731
872.6245667366575	0.492576798889786	2.811283405870199
880.1344692251545	0.4080777708441019	2.155151914805174
876.5807480796306	0.4860112299211323	2.6720141731202602
880.1344625169121	0.4284194461070001	2.264069586992264
876.5794579318186	0.45035318238660693	2.4435954689979553
879.9033807925533	0.375744438264519	2.0292567424476147
876.3518383753964	0.4672875190153718	2.5708114095032215
880.4805930454286	0.4463502080179751	2.385715141892433
878.4102987902907	0.4858891419135034	2.5964361242949963
881.1554556564529	0.4066472561098635	2.212215878069401
880.3667762108903	0.42175768641754985	2.2231260277330875
884.2199024822404	0.31076823826879263	1.6762587185949087
881.0576642776981	0.39116316894069314	2.1815893091261387
884.2198863620555	0.3118435894139111	1.699605705216527
880.972806029314	0.4068396366201341	2.189568132162094
883.9930426228938	0.36565191112458706	1.969014797359705
880.7125828911355	0.3598287282511592	1.9350857120007277
884.4547994685887	0.34277847269549966	1.859686478972435
886.5561675634912	0.3409533309750259	1.8584273792803288
884.454789295554	0.35094597190618515	1.9063064604997635
886.5561567593493	0.35307571152225137	1.918488034978509
884.3349053229117	0.4458248638547957	2.399186637252569
888.5450590871418	0.313990596216172	1.6832546759396791
885.2696616903141	0.3969234577380121	2.1493768244981766
888.545057566014	0.3093475867062807	1.666793892160058
884.9225318964168	0.3549748440273106	1.9724949039518833
889.2542452645267	0.37937745405361056	2.0414370875805616
892.7942372620017	0.266407479532063	1.4510611686855555
889.2542406720097	0.37969808746129274	2.0417022351175547
892.7932078377527	0.295783594250679	1.6131952181458473
889.2542416921024	0.3831214555539191	2.060202728956938
892.7936780285572	0.2642913064919412	1.4701313991099596
889.2542408474153	0.34577885270118713	1.9051386285573244
892.794231587277	0.2634934214875102	1.4409156069159508
893.3875979249069	0.2828337363898754	1.551803931593895
896.7255118074825	0.35442606965079904	2.0572664625942707
893.7448806461866	0.27544932067394257	1.5172076746821404
896.7254685514862	0.3587669422850013	2.0901609156280756
893.3875756039567	0.2792734825052321	1.5577529054135084
896.3665564221479	0.3714380972087383	2.1531380843371153
893.3875818736369	0.28094817185774446	1.5409011915326118
897.0884414293462	0.2850066381506622	1.7054399941116571
896.3665457802927	0.3801716361194849	2.1707605496048927
899.2479801379175	0.2903501056134701	1.8756638541817665
897.0884486239216	0.29969284730032086	1.7782815508544445
899.2517324993753	0.28198406007140875	1.8172606229782104
897.0884252827377	0.30441601062193513	1.793618893250823
901.301321529385	0.29784674383699894	1.9123158529400826
897.9277879733463	0.3440671688877046	2.129853989928961
901.3013188736987	0.28426672145724297	1.8512143772095442
897.9277766384163	0.35511296102777123	2.1953160725533962
902.1484276212576	0.25474755046889186	1.668316898867488
900.810780782872	0.33651627134531736	2.1411834210157394
905.0630937238994	0.2696162723004818	1.722040131688118
902.1483991917676	0.2404300724156201	1.6631152499467134
904.9448947648115	0.28310997784137726	1.8051271382719278
901.5425777719003	0.22871341626159847	1.5234193187206984
904.9449103598664	0.281350193079561	1.7787575758993626
905.7991348970073	0.3347244272008538	2.140374457463622
903.6050381176566	0.3402134091593325	2.1970943491905928
906.7750875684208	0.24393236776813865	1.585866218432784
905.7953833236852	0.34544588765129447	2.2123576924204826
907.8811590090412	0.23060514824464917	1.5058708433061838
905.4284289954036	0.28259449545294046	1.8287873547524214
909.354160543305	0.29345407569780946	1.9146108515560627
906.7749878096226	0.309299492277205	2.0169469248503447
909.3541574589701	0.30187068367376924	1.9781663957983255
910.5878602574893	0.2608062759973109	1.7074649091809988
909.3555051772136	0.3130669267848134	2.020801918581128
910.5878707278208	0.25865926919505	1.7081653662025928
912.4441156832363	0.1688365072477609	1.1274515865370631
909.845415667364	0.21199489058926702	1.4108230024576187
912.4441206159738	0.16963068954646587	1.1334091890603304
914.1785205156729	0.22557491553016007	1.4975504279136658
911.2060196048793	0.23047442943789065	1.5250064469873905
914.1784578077343	0.2130505135282874	1.427202409133315
911.2060018275145	0.2416040818206966	1.5889603178948164
915.1726967246751	0.20559087139554322	1.3765979409217834
914.1784164994986	0.22176062036305666	1.4595098327845335
