wavelength(nm)	flourescene PD(V)	ti_saph Power (V)
120.42	0.3484499682672322	2.2088442966341972
906.1611072837389	0.3221728946082294	2.05543146468699
120.42	0.3029990619979799	1.6302183456718922
893.3848945897684	0.2627621344290674	1.4245288223028183
781.2942268522579	0.36787537299096584	1.123404218815267
784.0996163276421	0.33176844101399183	1.0849899677559733
781.8679012097473	0.2734823627397418	0.8862581718713045
784.011491753855	0.33081147633492947	1.0846015075221658
784.9156251563472	0.45559429470449686	1.492749573662877
784.0127998756619	0.46479768492281437	1.4983014445751905
787.1171901894629	0.3640561462379992	1.1918605146929622
784.6811282127734	0.2841359986923635	0.9357823384925723
786.1069365815803	0.3711852887645364	1.2266725907102227
784.6815658555198	0.2974188211373985	0.9563681976869702
787.9435066274016	0.3176421062089503	1.0704369507730007
786.1919161055998	0.43976244097575545	1.361678659915924
789.5094983277459	0.4541440485045314	1.5268587209284306
788.1254544388812	0.314975923858583	1.0588201796635985
789.5085499439847	0.4486304013989866	1.5096173100173473
791.2592849482539	0.39621806470677257	1.3570553809404373
787.9432953244967	0.3138352152891457	1.0542277274653316
791.259281519505	0.3883613315410912	1.3254286665469408
789.5126072161779	0.4469791413284838	1.5046721752732992
792.7266820679995	0.45408362057060003	1.5247363802045584
791.3671608654842	0.37626238306984305	1.294097926467657
792.6875083973016	0.31759647699072957	1.1183086354285479
794.5194600702624	0.37502671405673027	1.5658020190894604
792.5966779755986	0.30269445898011327	1.0517921596765518
794.5579856673861	0.39783479226753116	1.3451956771314144
791.5453684890666	0.30470458418130875	1.0571294613182545
798.308008087145	0.44919397262856364	1.6059402860701084
794.718083999529	0.37125928048044443	1.3284401521086693
797.800343774755	0.3917366066016257	1.3848431278020144
794.8016443973463	0.38285015150904655	1.3677176497876644
797.800258340407	0.39556076657027006	1.3953426126390696
794.6512747349029	0.39052436919882894	1.389560129493475
800.8437436997026	0.5419702557846904	1.938694056123495
797.9339500874936	0.33041685074567795	1.1846401244401932
800.843741414311	0.5371681675314903	1.943869799375534
797.9340504638586	0.3624628479592502	1.3101505227386951
800.8425851052519	0.5388428475707769	1.9426625054329634
797.9340397135522	0.3432310582138598	1.2340397536754608
801.4055258118198	0.410041029099375	1.50710404291749
804.1134505406876	0.348951883148402	1.2889036871492863
801.4055210720287	0.40853282157331705	1.499879950657487
804.3096264055279	0.4391483082436025	1.613491177558899
801.4038350685971	0.4094947213307023	1.5035931169986725
804.310576119511	0.4573725704103708	1.6726503763347864
801.4038313150662	0.40868574008345604	1.503424171358347
804.9452983776455	0.5061938185244799	1.8267612103372812
807.5397114697242	0.30755944410339	1.1581755988299847
804.7472835986548	0.320415579713881	1.1998282354325056
807.5397008860712	0.3077111290767789	1.159555546939373
804.7472827530464	0.32195954862982035	1.2024808563292027
807.5397008497173	0.31285728327929974	1.1759633123874664
808.2242992846398	0.41813700599595904	1.5805782452225685
806.2810003065243	0.32856828114017844	1.232567299157381
811.1386708120862	0.3972995840013027	1.5350471772253513
808.0258839897671	0.3367814077064395	1.2862399648874998
811.0001670015113	0.4697798234410584	1.7980016954243183
807.9321812674982	0.5106222508475184	1.916743053123355
810.7492102371984	0.4424964487552643	1.694100696593523
811.5253242617047	0.5107628339901567	1.956722242757678
815.2590181724173	0.34968563821166754	1.3764055650681257
811.5263241890996	0.5009428448975086	1.9214181210845709
814.0699225245818	0.38865113351494074	1.5365640241652727
811.8250886057963	0.496264073997736	1.8968823291361332
815.2589720885354	0.3540067793801427	1.3917724937200546
814.0687752975879	0.5030047590844333	1.9721089210361242
815.2589705949312	0.3563449317589402	1.3980581182986498
814.0686274667027	0.3419583938084543	1.3441412914544344
816.2368755075724	0.3126044753007591	1.2794277593493462
815.2589994206264	0.4044077596627176	1.5803427007049322
818.62185276063	0.35392415430396795	1.4496318884193897
815.3463241893348	0.5064762267284095	1.9854040630161762
818.621851817406	0.35492798034101725	1.45383832603693
815.3505322512916	0.5020502610132098	1.9551967717707157
820.8103930199376	0.5086824200116098	2.124627685174346
818.3201279557695	0.3353669252246618	1.389904199168086
820.805487504764	0.5004964252002537	2.0784109458327293
817.6209159798717	0.3920646379701793	1.6098630987107754
822.2049255595152	0.5284531200304627	2.2249413020908833
818.7187892779109	0.5223931623622775	2.137735379859805
822.2049236173433	0.52492740098387	2.2069772221148014
818.7187863827247	0.5246832221746445	2.1420565377920866
824.3166887428766	0.47449681954458356	2.0368754751980305
821.8021514026761	0.3590111155062914	1.5093176495283842
824.31642996731	0.4659396279603243	1.995543461292982
821.8021532470088	0.3735481034964323	1.5396100338548422
825.6269571391464	0.5907199829816818	2.5095508508384228
823.5091811403447	0.53584124147892	2.2513318173587322
828.2680661826804	0.5710207996889949	2.427507121115923
826.0361030404615	0.36297832569107413	1.5693585723638535
828.2680753967113	0.5752469887956977	2.457382697612047
826.0757848892837	0.36183268250897527	1.5651348531246185
828.2680345285173	0.5691672991961241	2.4239123202860355
826.074567081734	0.49058271246030927	2.1050086598843336
829.508822777798	0.4600732862018049	1.9804391916841269
828.2680631920366	0.38176739728078246	1.6426551882177591
830.9652176976803	0.5109293209388852	2.288178686052561
829.5344061719217	0.5541172968223691	2.3992741890251637
831.747417311428	0.5837178602814674	2.5638475008308887
829.5344113584148	0.5366563908755779	2.367546360939741
833.1199240855595	0.42174535524100065	1.872143054381013
830.5185248029425	0.37718481943011284	1.691655257716775
832.990025626637	0.4332634652964771	1.9265803080052137
834.2574154030965	0.41470006946474314	1.8729791641235352
831.9497233805461	0.46543031511828303	2.071125192567706
834.2574242713383	0.415724859572947	1.8671103566884995
835.7971650829995	0.48268775176256895	2.1849633306264877
833.3894136242341	0.5881092939525843	2.6074794456362724
835.797155417148	0.4765340709127486	2.158654199913144
837.3678351155107	0.485134425573051	2.3507094383239746
835.3944441162521	0.4216664284467697	1.9910089708864689
837.4733055525589	0.40845266496762633	1.8850534576922655
839.2399376861763	0.4235063665546477	2.383055105805397
837.3696458677501	0.5652272226288915	2.5544135086238384
839.2399399936294	0.43437704676762223	2.519116807729006
837.0500013091381	0.49968744488433003	2.2637020759284496
840.9212336628351	0.6137044038623571	2.8231455832719803
838.574422096326	0.6266394630074501	2.8426486887037754
840.9212595870729	0.5861361636780202	2.766551461070776
841.8650627534948	0.35921706166118383	1.704050175845623
840.9212541745943	0.6215734714642167	2.8418643660843372
844.3850654081721	0.4141574604436755	1.9658220373094082
841.8692981072418	0.3568320460617542	1.6969814542680979
844.3841940379851	0.43287007324397564	2.098009020090103
841.8649159707301	0.3589913840405643	1.7046951334923506
845.2507673094234	0.4218255146406591	2.021734206005931
841.8644748999278	0.3634568080306053	1.731117732822895
845.6750641989394	0.5012597809545696	2.3796613328158855
847.0571675992617	0.5085677402094007	2.4542959816753864
845.2507668813748	0.43045176193118095	2.058563793078065
847.0570974390706	0.5080399261787534	2.4642812199890614
849.2978382784894	0.5231429543346167	2.60511414706707
846.8361469394678	0.4033435075543821	1.9813825953751802
848.8753298999376	0.44193411292508245	2.195422124117613
846.3106248304573	0.3477988396771252	1.7103123776614666
852.2637051281915	0.4343610159121454	2.1281521786004305
848.8753441939726	0.43106712913140655	2.1340333074331284
850.8962005002106	0.45839243149384856	2.2927193380892277
848.6160699196403	0.41773744858801365	2.057357732206583
852.8049890882983	0.4062402998097241	2.046154083684087
850.6749332035045	0.49234125716611743	2.3922757618129253
852.9154646455877	0.5611662864685059	2.6691062599420547
849.9290720263242	0.40842553693801165	2.034248746931553
855.9489940447728	0.45438328944146633	2.3252487517893314
852.8080994178498	0.5147386780008674	2.5647329539060593
854.6474252723542	0.49271984957158566	2.563237078487873
852.696938947498	0.4970730571076274	2.460984867066145
856.6003636081314	0.43349283980205655	2.1601167749613523
854.4640437404148	0.44270856166258454	2.25257982686162
856.6032061335526	0.4250971986912191	2.137842696160078
858.2386385922956	0.5272852797061205	2.6321299374103546
856.6031898758699	0.42711225152015686	2.1387256626039743
858.2386128285416	0.5227581970393658	2.6148354932665825
860.2152422301597	0.5744787072762847	2.900172635912895
858.2386068838865	0.5213560406118631	2.6082798056304455
860.2158723548034	0.5732750995084643	2.912710588425398
858.238598903998	0.5222451817244291	2.6086978502571583
860.6930765909532	0.5262432303279638	2.69254082813859
862.5817760446384	0.4798452164977789	2.47779219225049
860.6943445894079	0.5436239829286933	2.7662604339420795
862.5786183681087	0.4512990517541766	2.3882370218634605
860.6930096093747	0.5494348322972655	2.8035857416689396
864.352489147791	0.5364233162254095	2.825303677469492
862.571777384079	0.4506627172231674	2.3369506150484085
864.4507590600555	0.5376688465476036	2.866038829088211
862.360225092225	0.4563132510520518	2.366283558309078
865.1132200043664	0.36455312743782997	1.9541756734251976
868.350195332783	0.412418644875288	2.268978949636221
865.1132032295329	0.36738579347729683	1.9591541178524494
868.3506485337466	0.38328423677012324	2.091976173222065
865.1131607772512	0.3846580246463418	2.026923520490527
868.3501855727443	0.3911804324015975	2.1790094394236803
865.1131838419108	0.379885533824563	2.034782713279128
868.7613299883961	0.4665919914841652	2.5539029613137245
869.0380900364701	0.48998214257881045	2.7247952297329903
872.1933347204654	0.3551117302849889	2.0806455053389072
869.1026037813054	0.45412924932315946	2.466212410479784
872.1785940092863	0.3540092445909977	2.059317274019122
869.1024682404782	0.4346323194913566	2.414355017244816
872.1822104754634	0.3565730722621083	2.0574119947850704
869.0313237496586	0.4658841327764094	2.5671204403042793
872.9405858208468	0.41008295863866806	2.3380974791944027
872.0664485536887	0.4775613280944526	2.747137162834406
876.5271891204823	0.39869186747819185	2.169692598283291
872.5157069777807	0.35952166141942143	2.0691964756697416
876.1196356760872	0.38229150837287307	2.0367163848131895
872.5177789573563	0.38384411204606295	2.182374844327569
876.0065953750765	0.4812103724107146	2.5809446312487125
872.4075074711388	0.438236968126148	2.4939126074314117
876.4645231718195	0.35402034502476454	1.9232962969690561
878.4091751328199	0.4224088191986084	2.23226404748857
876.4635998558068	0.45939748967066407	2.493407007306814
878.5231440744661	0.34792585857212543	1.8484421353787184
876.3482400574911	0.47757242573425174	2.5827044025063515
880.2479847939474	0.48003636533394456	2.5082276426255703
877.0343094984562	0.31566035049036145	1.7030623815953732
880.2495181809427	0.4615740943700075	2.428814325481653
880.9388968148622	0.36254793917760253	1.926601279526949
880.2495096583078	0.4583307709544897	2.3981791138648987
882.5932295181303	0.38457416417077184	2.0361787155270576
880.9383532032266	0.3296917271800339	1.7590916957706213
883.9922235096997	0.39087829599156976	2.059287691488862
880.7103265915168	0.3512727697379887	1.8744331169873476
884.5700033915024	0.34251333260908723	1.84138329513371
882.5932785016848	0.4071183381602168	2.165888162329793
884.5686265022856	0.3397028665058315	1.8240851573646069
886.6656338791122	0.28421368915587664	1.5187935717403889
884.4488702999458	0.42314997129142284	2.239726170897484
886.6656270385048	0.27938323840498924	1.5056266598403454
884.3362397681587	0.4456472839228809	2.377904035151005
888.8957948190424	0.3641979629173875	1.9366284403949976
886.665608379825	0.2697038296610117	1.4583321325480938
888.9007455502992	0.3675954369828105	1.954073330387473
885.2686223274699	0.37409441312775016	1.9978446178138256
890.6633470665689	0.26666398579254746	1.407399632036686
888.4261980029089	0.37968082213774323	2.010831465944648
893.5010761883239	0.28483029175549746	1.5342307947576046
889.2498709362588	0.3957704110071063	2.0982605814933777
892.6763312010264	0.35139732202515006	1.8816572073847055
889.2498715059853	0.40575688518583775	2.1467377562075853
892.6762492124055	0.36403271509334445	1.9470391366630793
888.8981469975233	0.3526699892245233	1.878349767997861
893.031985884314	0.31543097645044327	1.6802037321031094
894.8140264114281	0.331430543679744	1.7996825519949198
893.0319823128415	0.3182241767644882	1.7037800960242748
895.0493803017306	0.3389308787882328	1.825960859656334
893.0319856174268	0.3312097992748022	1.7672517970204353
897.0889935749638	0.2993043870665133	1.7298068348318338
894.8141302848045	0.3759084534831345	2.043515034019947
897.0839531458249	0.3065025876276195	1.7848163023591042
894.8140150952254	0.3810681737959385	2.075193526223302
898.0439655182889	0.2591784493997693	1.5990849137306213
897.0868095232353	0.30668880417943	1.7834832053631544
901.3030860436562	0.27383012790232897	1.7246656119823456
898.043929014234	0.2695348816923797	1.6634358800947666
901.3031136808136	0.2768884692341089	1.7525779139250517
897.8079980776624	0.28831161884590983	1.701217507943511
901.3031010562028	0.28682684525847435	1.801748163998127
897.0839681010915	0.27666649129241705	1.6284943260252476
901.6608111547033	0.2825316023081541	1.8014990575611591
903.6022924708132	0.33494023652747273	2.1324918009340763
901.3031006073783	0.27131439419463277	1.7457990106195211
903.6022758865628	0.3416476249694824	2.167345803231001
901.3030931646305	0.2847390351817012	1.8179512154310942
905.1862676174234	0.33094712952151895	2.0794653575867414
902.1465577704168	0.24206529930233955	1.5670093204826117
905.1862899592921	0.335492713842541	2.1185664795339108
906.1608805658706	0.315007986035198	2.0148529410362244
905.186249331002	0.3453829954378307	2.163318183273077
907.997078244201	0.272495798766613	1.755001163110137
906.1608686176246	0.3296596654690802	2.08251628652215
907.9970751117744	0.2589823710732162	1.6688878666609526
906.1608663752248	0.3377223419956863	2.149147441610694
909.8424758342359	0.22139312652871013	1.4152206052094698
907.9970700567842	0.25465999473817647	1.6239635441452265
909.8448261745937	0.21932381391525269	1.4349382799118757
911.2014157681061	0.2201944545377046	1.4173910487443209
909.8409135326174	0.2064800097141415	1.3330880925059319
911.2014130127352	0.2276405307929963	1.4814916718751192
914.1752642285742	0.21562420506961644	1.4025297109037638
911.2026818069256	0.2328125813510269	1.5008714385330677
914.1752577612264	0.22162003512494266	1.4359864946454763
911.2029064188129	0.24496949021704495	1.6116833090782166
915.1770547326677	0.1941171563230455	1.2687173932790756
912.4422027737345	0.17651195777580142	1.1700192783027887
918.4305142177235	0.19953214726410806	1.2838512528687716
914.4221146408094	0.16860589920543134	1.1230848226696253
