wavelength(nm)	flourescene PD(V)	ti_saph Power (V)
120.42	0.30687254993245006	1.7369039077311754
120.42	0.32308669527992606	1.7262552175670862
878.4095232567283	0.4413619050756097	2.2553027383983135
780.568184659284	0.34947476210072637	1.1021845070645213
784.0114301253466	0.38191415229812264	1.2699542939662933
781.7403481541785	0.395438679959625	1.3015686627477407
783.1323999889584	0.3696252885274589	1.2042788732796907
781.7403317842552	0.37078819796442986	1.2013944033533335
784.0961894448799	0.419187692925334	1.3661749064922333
785.1088201863327	0.4373589279130101	1.4675762113183737
784.680077440205	0.39663118636235595	1.3629525527358055
787.6643563862465	0.35911347111687064	1.2111453395336866
784.3773265428441	0.43457929138094187	1.4150627609342337
787.9450105600641	0.3324664328247309	1.1325410166755319
785.1081907314347	0.43408231250941753	1.418613139539957
787.6644131401393	0.29792936937883496	1.0002652620896697
788.3134238752853	0.410230943467468	1.3792961910367012
790.3388978801087	0.3409323678351939	1.1832096027210355
788.1235076896861	0.31119369249790907	1.0481714736670256
790.8030022005909	0.332143334671855	1.1105641163885593
788.123372960959	0.32243309915065765	1.0714863976463675
790.802984697768	0.4770939461886883	1.460136303678155
791.3526966307172	0.3174398639239371	1.095919843763113
792.8407767896141	0.3477112799882889	1.215148314833641
791.3526736012483	0.3184806848876178	1.115431564860046
792.8408650413029	0.3448699810542166	1.2048523090779781
794.5580799365888	0.45904109440743923	1.6135799754410982
792.8408569837661	0.3203366547822952	1.1320440378040075
794.5592259854967	0.472281988710165	1.6702838521450758
792.8408590328861	0.3470934475772083	1.210708774626255
795.8655147191578	0.3527957736514509	1.2257637232542038
794.6266939132208	0.4656165293417871	1.7124988362193108
797.9313342653943	0.34607358556240797	1.2252383828163147
795.8646210571706	0.3741647070273757	1.3144174106419086
797.9313892999808	0.3373906104825437	1.1897492781281471
795.8653903142581	0.36992002511397004	1.302367789670825
799.227502878701	0.4753884240053594	1.6955497059971094
797.9990841922034	0.35344197088852525	1.2500405423343182
799.2263232029069	0.3507104301825166	1.2628054153174162
797.9313217078223	0.33040328742936254	1.1787626799196005
801.2183753492391	0.30338505282998085	1.120152265764773
798.3138730578811	0.43512683315202594	1.5534626003354788
801.2184034990413	0.30350837344303727	1.1239776583388448
802.4572443556749	0.34273777762427926	1.2643358241766691
801.125907884355	0.39455324225127697	1.4407750200480223
804.3803314101764	0.41596163529902697	1.5359634514898062
801.4068072958223	0.392130000051111	1.4425224754959345
804.3972276348442	0.4051785129122436	1.4679523333907127
801.6029926320563	0.39360244339331985	1.4380360785871744
804.7428889799891	0.32167467940598726	1.1951186377555132
806.285172645259	0.3415933670476079	1.267277006059885
804.7428838907773	0.32261068001389503	1.193769520148635
806.2851989261939	0.33777660178020597	1.2560499347746372
808.0224086064901	0.34361828304827213	1.2917437441647053
804.7428820657308	0.32432976458221674	1.2015386912971735
807.8343287497707	0.3404452530667186	1.2839486692100763
809.4814925995025	0.3305747015401721	1.2684818487614393
808.0223877201498	0.34820949379354715	1.314625822007656
810.837988041926	0.32199407694861293	1.2338091377168894
808.0224122168825	0.3482205932959914	1.3089826852083206
810.8379876042101	0.3267123126424849	1.2485865987837315
808.0224113721363	0.34583434741944075	1.302738981321454
811.5293301471373	0.4746743990108371	1.8193052653223276
813.978855099832	0.42435850901529193	1.579938217997551
811.5303027763782	0.4493925175629556	1.7260258346796036
814.0769625346505	0.5255945641547441	2.0487832725048065
811.5302861452357	0.4428220163099468	1.7008302845060825
813.9788435972182	0.3915750589221716	1.5225141495466232
814.7522593919836	0.3506500022485852	1.3898684307932854
813.9788685026483	0.40002989349886775	1.5516337510198355
815.3497444121193	0.48638119315728545	1.8778059240430593
817.6143830902142	0.33230241807177663	1.3685105964541435
814.7602501475934	0.3589802850037813	1.4214519802480936
817.8199589283804	0.3084448832087219	1.271637624129653
815.3465748465629	0.5015458781272173	1.9422247186303139
817.8206900922639	0.3112220554612577	1.2842125855386257
818.7166146748016	0.5110859358683228	2.076932355761528
817.6144079191394	0.3662179494276643	1.4967069178819656
821.804492189915	0.5181509498506784	2.165981888771057
818.7166046548026	0.5136226387694478	2.08920519053936
822.2064035445082	0.5155254602432251	2.152433931827545
818.7166066346617	0.5132292462512851	2.0826778411865234
822.206406423123	0.5153256859630346	2.1661853659898043
818.7166041368022	0.5074122278019786	2.060974705964327
822.2022984015085	0.5199218345806003	2.1671287678182125
824.3175837901348	0.4813423245213926	2.0477523263543844
821.80633738092	0.3810040452517569	1.5924354903399944
824.2733117971544	0.4743500677868724	2.019080365076661
821.8049611668754	0.374791172798723	1.5607520435005426
825.1260365296181	0.5403880560770631	2.1743454597890377
824.1228952934507	0.5424499725922942	2.2656197287142277
827.0576559268362	0.3948270119726658	1.6957050878554583
825.2249190536385	0.37877071695402265	1.5957256723195314
827.0587944860882	0.4114061859436333	1.7361972965300083
828.5722729938359	0.546053390018642	2.34086973965168
826.340604737951	0.466330552008003	2.003437180072069
828.5755636570786	0.5388539554551244	2.310276437550783
829.898028786423	0.5638238340616226	2.4341146238148212
828.7854900928244	0.5219874437898397	2.2346737384796143
829.8980297814429	0.564876988530159	2.44199725612998
831.7437226571724	0.5762039544060826	2.4993300698697567
829.8987195720939	0.5661397902294993	2.437573753297329
831.7437203278237	0.5741815017536283	2.5016990453004837
829.8987219939031	0.500830624718219	2.1606630850583315
832.7060572371875	0.5983942020684481	2.6187632493674755
831.1244281605055	0.3923421115614474	1.7030919753015041
833.3870858801632	0.5976912761107087	2.6139956936240196
834.2578119230677	0.39113603672012687	1.7581285629421473
832.7048386133721	0.5453442968428135	2.3818280696868896
835.0682957313263	0.398383567109704	1.7882310338318348
837.0506999623258	0.5292522395029664	2.377875667065382
834.7762921874912	0.4135272935964167	1.8846292290836573
837.0506463435426	0.5201549045741558	2.334660552442074
834.3131695263485	0.43584455735981464	1.9727008491754532
838.3022100851856	0.35714034643024206	1.6389531139284372
836.8029336582	0.4626284809783101	2.0999574698507786
838.3062285330693	0.4971297816373408	2.13423184864223
840.398387952853	0.5392091125249863	2.451722290366888
838.2021656550673	0.4903841633349657	2.2260573469102383
840.3983855863964	0.535687088035047	2.4357276558876038
838.2034433951034	0.4339824221096933	1.9600790180265903
841.2254826415531	0.616946492344141	2.813841063529253
842.9045609409226	0.5104520646855235	2.393951691687107
841.4424358683251	0.6030125422403216	2.793330453336239
842.8068628635881	0.5660374355502427	2.59903572127223
840.9217823109987	0.6214094497263432	2.8451841473579407
843.3338186817839	0.5931876208633184	2.7780634090304375
841.8664412289468	0.4059578971937299	1.981451652944088
845.4598535484542	0.38578023947775364	1.8717940542846918
844.5906029676587	0.4295354946516454	2.011403689160943
845.460217874311	0.4032744485884905	1.959854580461979
846.098640517402	0.5241184178739786	2.5320247411727905
845.2050561191289	0.527773629873991	2.5011515095829964
849.1491310505015	0.453029231633991	2.2301626913249493
847.0548752265483	0.5373765798285604	2.5799605399370193
849.1505995773557	0.43786207726225257	2.153494482859969
847.0548520805376	0.5503387711942196	2.6532238498330116
848.8233871031772	0.4628097605891526	2.2777926549315453
850.6701881608307	0.4030672684311867	1.9768012464046478
848.8263738978864	0.500276914332062	2.4448348581790924
852.3733313188534	0.4005318065173924	1.9759195074439049
848.8233186962069	0.5025053145363927	2.4793879464268684
852.373286675533	0.41824552742764354	2.1893202532082796
848.8264608874499	0.4939123587682843	2.4348557628691196
852.3733264083205	0.41465690778568387	2.038243083283305
854.541139306123	0.5166057497262955	2.476253140717745
852.3733175349954	0.411990724503994	2.0335396584123373
854.5411526142418	0.43923832941800356	2.203384928405285
852.3733364688251	0.4079667842015624	2.0067877881228924
856.2768398964868	0.46224002027884126	2.328427955508232
853.0217642917972	0.5772053143009543	2.857872564345598
856.2768547834681	0.44240519404411316	2.176880931481719
856.5989160959069	0.48689543548971415	2.4080262295901775
858.6573379013636	0.4241735306568444	2.113678080961108
856.8198065467706	0.48078738478943706	2.389883354306221
858.6570843806543	0.42508486891165376	2.1090301498770714
856.8210759483406	0.48208964616060257	2.3941958658397198
860.4128911504642	0.46852318570017815	2.3717836290597916
858.6573412143304	0.426892742048949	2.12026708945632
860.41295441675	0.4870545193552971	2.4464601948857307
858.6573281346205	0.4282517321407795	2.123176209628582
861.2461152008358	0.6028213938698173	3.0476513132452965
864.2449704073133	0.5018504839390516	2.590230654925108
861.244736977272	0.5789021998643875	2.9438551403582096
864.3392622294759	0.4710389203391969	2.470709901303053
861.2447438688648	0.547085584141314	2.8073568865656853
864.1187975655038	0.5666047064587474	2.9451610781252384
861.2449974139715	0.5409060027450323	2.7698774076998234
864.8892884719444	0.34599959617480636	1.8483003210276365
864.1187349296923	0.5721837133169174	2.9915689826011658
868.9248025072277	0.36829713033512235	2.0372047256678343
864.7761993954789	0.4540725229308009	2.3974601328372955
868.2390521674782	0.48501233756542206	2.6734828986227512
864.786116347353	0.40806173952296376	2.1657118164002895
868.2371759999751	0.4746411042287946	2.6144186817109585
864.7761858103687	0.45324257481843233	2.4051121696829796
868.9247235836579	0.37266636779531837	2.124790448695421
867.9816365433277	0.5033808867447078	2.772721167653799
872.0616373087853	0.4683604040183127	2.6782406009733677
868.9118022213896	0.3997265244834125	2.2176468893885612
872.0616245916754	0.46584837045520544	2.665432572364807
868.6900634329355	0.4006390948779881	2.0408315863460302
871.9663565442902	0.45452634152024984	2.5783487409353256
868.5744233386981	0.44497148552909493	2.462475810199976
872.4159259811023	0.43581865867599845	2.4384369999170303
874.4117023494296	0.34746217215433717	1.91670729406178
872.5973490647228	0.38914194889366627	2.1617409121245146
874.4117028499417	0.3503651306964457	1.9343371540307999
872.3729673436662	0.420493655372411	2.3590890429913998
876.2345870442387	0.4050095649436116	2.168063547462225
872.9374925835725	0.3900138237513602	2.161335190758109
876.2332935287168	0.43724300945177674	2.3193157985806465
878.2918872634167	0.35803811764344573	1.885878473520279
876.2332732735831	0.4051390499807894	2.1556587517261505
880.2481833106168	0.4891928918659687	2.517211489379406
876.8055908577305	0.35572586581110954	1.9130792133510113
880.24817169983	0.48516648868098855	2.508365750312805
876.8055962104197	0.36011359794065356	1.929205795750022
880.248445347495	0.4599746288731694	2.3745941147208214
876.5747703881754	0.4777660397812724	2.5271782130002975
880.709201490857	0.3762882803566754	1.980902872979641
882.5952203296498	0.37984113954007626	2.000699482858181
880.6258138811085	0.3661945192143321	1.921218341216445
882.4407972880157	0.40155043080449104	2.1121883615851402
880.4775550914881	0.43630577344447374	2.2873191498219967
884.3326383535739	0.44240889325737953	2.3408450596034527
881.3200923006523	0.4319217405281961	2.29324097186327
884.3326357677715	0.43829369777813554	2.2942361757159233
884.9142840698885	0.3462388375774026	1.8443158455193043
884.3334829522358	0.4330217558890581	2.245787352323532
888.3098854987551	0.4043843294493854	2.118751458823681
884.915528269308	0.3855496305041015	2.0605714432895184
888.3110996361997	0.4170887805521488	2.181770596653223
884.9155342752933	0.3690543160773814	1.9683624468743801
888.3111590385987	0.4153844970278442	2.1716053038835526
884.5667277962323	0.33902213675901294	1.8139630313962698
889.012658588041	0.3080971213057637	1.6133283954113722
886.6706624091083	0.2747167991474271	1.4574059899896383
892.3186115287042	0.36726863821968436	1.9634703323245049
888.6610146659366	0.37016913341358304	1.9377296902239323
892.3185680353	0.3715614164248109	1.9814134184271097
888.6610215138699	0.37093618232756853	1.9455987606197596
892.318557149997	0.37356660375371575	1.9871453419327736
888.6610191773648	0.36314604338258505	1.8930668029934168
893.0306707590439	0.3186607314273715	1.6858924981206656
890.9000092489872	0.29929575650021434	1.5616954527795315
894.813994690091	0.38534245314076543	2.071344716474414
893.0306530836317	0.32867926824837923	1.7319970056414604
894.8126717017761	0.36822313629090786	1.9855680838227272
897.0826748657389	0.32311259489506483	1.8517187610268593
894.6944347671492	0.2816005344502628	1.5113659985363483
897.0827074766341	0.32769640535116196	1.8649090938270092
894.6944206838212	0.28663570107892156	1.5384273808449507
897.0826926932795	0.3178542177192867	1.8159164246171713
898.0463803102303	0.2569734831340611	1.5590563956648111
897.0839506102368	0.3136477656662464	1.7785208020359278
900.7525255442238	0.26600175630301237	1.6574449837207794
897.0840410996428	0.302488517947495	1.7473096773028374
900.7525456867195	0.25259561464190483	1.5959032624959946
897.0829537568039	0.3050338472239673	1.7650085985660553
901.2966119724213	0.25430359970778227	1.6032223086804152
899.2458519522371	0.25939055951312184	1.6046799533069134
903.5997747609989	0.3390246038325131	2.1134043093770742
901.2965977689322	0.2694325246848166	1.703530989587307
905.3115217382986	0.23865919350646436	1.5026287604123354
902.1438649877286	0.2463050486985594	1.6155900917947292
905.310900359541	0.24991463334299624	1.576929198578
903.2377939442619	0.2463519098237157	1.5786310192197561
905.3103152078543	0.25199874490499496	1.5810049381107092
902.1438647471266	0.2561534042470157	1.6313134264200926
906.1583281339275	0.32083240151405334	2.014595203101635
905.3114840582407	0.2427867220249027	1.52333546243608
909.3495761411948	0.30558138620108366	1.913015080615878
906.1583275296075	0.33411399088799953	2.09809903614223
908.8422762090674	0.31371065881103277	1.9456863198429346
906.1583347591553	0.3300900515168905	2.092368360608816
909.3495757127656	0.3201775699853897	2.0009448882192373
906.158321808052	0.32964486675336957	2.0642352793365717
909.9682310277849	0.2748993122950196	1.7581988461315632
911.2001122367155	0.20877006580121815	1.3519992474466562
909.9685133366975	0.28683917643502355	1.8221243750303984
911.2001128559008	0.21098983148112893	1.376262504607439
914.1792942887404	0.21068029757589102	1.352894552052021
911.2001023440044	0.21175688318908215	1.3639206197112799
914.1792935479504	0.22485719295218587	1.4500289764255285
911.2000954630387	0.22209851909428835	1.4300523269921541
914.1792887489636	0.23466731770895422	1.5045920070260763
910.5832198810473	0.24669967335648835	1.590657215565443
915.1731945693069	0.20801041508093476	1.3409312535077333
914.1792294974694	0.22417523059993982	1.424541151151061
