wavelength(nm)	flourescene PD(V)	ti_saph Power (V)
120.42	0.3483155486173928	1.3314306735992432
811.339769052915	0.31672583846375346	1.2452063914388418
780.1190438401868	0.400724183768034	1.277092069387436
781.9565442423365	0.45141126913949847	1.4743637572973967
784.6785523258462	0.30563195003196597	1.012697184458375
781.206551276548	0.3408324783667922	1.1166388699784875
784.4657665235868	0.29671589378267527	0.9779245695099235
781.7421467735267	0.341706819832325	1.119654049165547
784.4242699433167	0.34917755890637636	1.1522537600249052
784.9171158635513	0.4264500210992992	1.4182592164725065
787.6647930377816	0.27419885294511914	0.9326746696606278
784.9210076535513	0.4288350371643901	1.4203963540494442
787.6621412606748	0.2848191913217306	0.9749685795977712
784.9210021150489	0.4250084087252617	1.4097143579274416
787.6621830089341	0.2758340798318386	0.9344221232458949
784.9171013852662	0.4373959223739803	1.447435548529029
788.1210543177881	0.32390430895611644	1.1080311154946685
790.2607582902971	0.45442768512293696	1.5468476973474026
788.12007072198	0.31919840816408396	1.0923928814008832
790.801581507336	0.3094869405031204	1.0749553963541985
788.1219392668061	0.31836846470832825	1.084912272170186
790.80158105618	0.30590818589553237	1.0613531777635217
791.4816104774767	0.31354911159723997	1.1024533500894904
793.9000208166807	0.3870862000621855	1.3353460878133774
791.4577405082883	0.47266304958611727	1.6220422144979239
792.7565171678883	0.3350388938561082	1.2246760427951813
791.4540979019265	0.4596071345731616	1.5677208863198757
793.9000656953988	0.3246479285880923	1.1440788563340902
794.6486046553528	0.3417956088669598	1.2454061787575483
793.8999255439013	0.36974984174594283	1.2718287650495768
797.1808616496738	0.35291416430845857	1.2431962676346302
794.6487201525177	0.40992140863090754	1.4590325839817524
797.1807444815903	0.35121110966429114	1.237511208280921
794.6486840982986	0.39050587080419064	1.6761193685233593
797.8409038540495	0.35957468627020717	1.2866728212684393
795.8666661742459	0.3647936009801924	1.2939363792538643
799.2277183164597	0.3429622184485197	1.2657355163246393
797.8426822648404	0.3383056460879743	1.2225130014121532
799.2276494325516	0.3521668422035873	1.2480390463024378
801.1267119909186	0.3327278709039092	1.2746589630842209
799.2276802589073	0.43153944704681635	1.5559363886713982
801.2183345294739	0.32488963939249516	1.211438836529851
798.3125118829167	0.43905581487342715	1.583484910428524
801.6023612436293	0.4853317369706929	1.8144353479146957
804.3780316335357	0.4328133463859558	1.6213380508124828
802.4572945608815	0.38875102205201983	1.4606468509882689
804.3780314136734	0.43161220755428076	1.6238303557038307
801.6063492237647	0.4867388200946152	1.820679059252143
804.378032305355	0.4337703129276633	1.6288716904819012
804.8560738628748	0.501608774997294	1.873521776869893
807.9276355012444	0.5242713345214725	1.9692096505314112
804.8556291348127	0.5219751093536615	1.9646615982055664
807.2869843344546	0.5223426036536694	1.9618141409009695
804.8519654376619	0.5261408695951104	1.9754101932048798
807.2881799774865	0.48829758865758777	1.8449719101190567
808.220572825865	0.43723931163549423	1.6637639217078686
806.2012897491144	0.36729330103844404	1.395986344665289
810.8413970946979	0.33124556299299	1.2817770037800074
807.9276250404904	0.519031461328268	1.9593600668013096
810.8413464418654	0.32827354641631246	1.2700603492558002
808.2208544438699	0.519546939060092	1.9595055785030127
810.8413504192446	0.3279677121900022	1.2684929445385933
811.5309860081913	0.46965033328160644	1.8119035921990871
813.0089587143897	0.5039913230575621	1.9704687390476465
811.4400845435331	0.5152800567448139	1.9810409937053919
813.0089686847684	0.5020083342678845	1.9595080502331257
814.7580217937551	0.3672316442243755	1.4636274967342615
812.9872038278196	0.440308750141412	1.730924118310213
814.7621224472122	0.3387816618196666	1.3407327067106962
812.9873420009471	0.4839579504914582	1.9015573896467686
815.346727195281	0.4828603998757899	1.8813267089426517
819.849700383568	0.5332675436511636	2.247114285826683
815.34568834952	0.48150510992854834	1.884340662509203
818.3175392117147	0.34801094932481647	1.4332574177533388
815.3456814148067	0.4877895098179579	1.90677385404706
817.7331975100395	0.3435196285136044	1.4310869798064232
815.3456783527927	0.3805847563780844	1.7624349053949118
818.715235633807	0.3808659282512963	1.5900480188429356
817.6201021161845	0.39590606559067965	1.622049616649747
819.8495737404758	0.37707506446167827	1.5721974018961191
822.2096552011935	0.4900080398656428	2.0751923173666
818.7148995013376	0.5011697532609105	2.054936945438385
822.209656287831	0.4868288445286453	2.0643388871103525
818.7157126298431	0.49821376893669367	2.04051217623055
822.2098840671467	0.4824768751859665	2.0487389005720615
824.1215646741441	0.35417079646140337	1.5929731670767069
821.8062398172139	0.40524387219920754	1.697542555630207
825.6295538641442	0.583540272898972	2.5002056509256363
824.1215897365083	0.5393151706084609	2.2797780968248844
825.1779025990438	0.5811540298163891	2.4949645213782787
824.1216366128893	0.43865502579137683	1.8880513608455658
828.2659443832375	0.5640100464224815	2.4209773167967796
826.0762679680286	0.4966315710917115	2.1601315829902887
828.2659526527315	0.5543479071930051	2.3985527716577053
120.42	0.4992311601527035	2.166539303958416
828.5719967118483	0.557528336532414	2.426307212561369
826.0762855279606	0.49451169464737177	2.145571168512106
829.5370672449052	0.5559461424127221	2.4067104011774063
827.9760956070724	0.5552271828055382	2.4013484306633472
829.8966340045048	0.5594706321135163	2.456624262034893
830.9375153467223	0.5084000248461962	2.2701492607593536
829.4092262221591	0.383063493296504	1.6771515626460314
833.022904586823	0.5661533530801535	2.5366036109626293
830.4549764088022	0.4896306782029569	2.1143945567309856
833.0232645642499	0.557263202033937	2.4922564141452312
829.8990776508733	0.5572212720289826	2.4588329307734966
834.2553929979821	0.4494825401343405	1.9490443244576454
832.7019418427561	0.5507864216342568	2.43579426035285
834.2585817493726	0.41389232175424695	1.9367727246135473
836.6274328669003	0.45905835879966617	2.1166020054370165
833.7028211880694	0.45233740424737334	2.0942687056958675
836.5363506009477	0.49844067776575685	2.359676070511341
833.3910419931439	0.5914894994348288	2.6554004698991776
851.396666502897	0.43165536923334	1.9811877459287643
835.801765251933	0.4020289173349738	1.8636450581252575
839.1445482030624	0.4157803556881845	1.9220766574144363
837.0588080020913	0.5461421785876155	2.5072558484971523
839.144552192455	0.4113716562278569	1.913007689639926
840.6999915192131	0.6142581170424819	2.8204683028161526
838.2035805034791	0.5255711311474442	2.415625210851431
840.9255519966082	0.6117399167269468	2.838524851948023
838.5754464201813	0.575572554487735	2.7313114553689957
841.6168526354243	0.5112635185942054	2.4698466658592224
843.1327388601186	0.4050317625515163	1.9658195823431015
841.8591727750533	0.3620632919482887	1.7632007226347923
844.3972821503853	0.4284515082836151	2.052307764068246
841.8693691088267	0.4844993259757757	2.3411126658320427
845.2495631030645	0.43079089326784015	2.0800437182188034
843.0877669159153	0.5012906054034829	2.4258916154503822
845.0340281088761	0.4437037562020123	2.1131625939160585
842.9085282083198	0.6003845874220133	2.8896287605166435
846.1027131856663	0.46586070442572236	2.284206546843052
848.827363211356	0.4949716771952808	2.4728186801075935
846.2791512542731	0.5289168078452349	2.7447632402181625
848.8273692985282	0.4836175828240812	2.404997482895851
845.8862471997177	0.531204404309392	2.6026724241673946
848.6158796439482	0.4623460774309933	2.5011243671178818
845.6759066894851	0.5034289797767997	2.4607986509799957
849.3010794378952	0.3982639475725591	2.0185167603194714
120.42	0.5157067431136966	2.567740749567747
852.8056561084047	0.5208997596055269	2.623693596571684
849.3010680807902	0.4783209809102118	2.4243797063827515
852.8056358430672	0.5105889523401856	2.5767579153180122
849.3010657127962	0.4770791460759938	2.422122959047556
852.8055048039325	0.5087218889966607	2.5693328119814396
849.3010683723882	0.4768534698523581	2.421845503151417
854.5383302311277	0.4432302061468363	2.2659970857203007
852.7418330579404	0.40429677395150065	2.0297882463783026
854.5383436579701	0.4448999627493322	2.2583684735000134
856.4934038982476	0.5528273666277528	2.8004953637719154
854.5383221290512	0.4472319479100406	2.2691590040922165
856.494062558235	0.5093039539642632	2.5722061432898045
854.4919236714113	0.44637980591505766	2.2658577114343643
857.1304059106122	0.5254206834360957	2.6525739580392838
860.7478411153401	0.49015479162335396	2.5284953117370605
856.4945903065925	0.539502615109086	2.6876869201660156
860.1080968250864	0.5174097996205091	2.671406175941229
857.1327993139495	0.5524549447000027	2.7846203446388245
860.1082376514491	0.5261458046734333	2.7002384550869465
857.0407309152163	0.5514955082908273	2.7769350111484528
860.5941036976346	0.4916136679239571	2.515095330774784
862.470720913097	0.41568416357040405	2.185827823355794
860.705757560708	0.4848162573762238	2.4878415651619434
862.4707115391656	0.42079332284629345	2.2093733437359333
860.5941052040162	0.46545744873583317	2.4351468086242676
864.1310358483662	0.403179491404444	2.1465503200888634
861.4248540150785	0.4966241712681949	2.5742915123701096
864.2382896172065	0.4092937079258263	2.1762150023132563
865.0840141919297	0.5283655663952231	2.7300388030707836
864.341675835052	0.41360251884907484	2.206929136067629
868.1281803771035	0.48490504873916507	2.7193777672946453
865.0840407440762	0.5136485295370221	2.7681595608592033
868.2413706393121	0.46681643510237336	2.607076197862625
865.0837836628258	0.49135469598695636	2.671555396169424
868.2083080720993	0.4436346963047981	2.4715262837707996
865.084002945716	0.37619085842743516	2.03666334412992
869.1399163727104	0.5083013670518994	2.8616030029952526
868.1286555986507	0.39288718486204743	2.2187333554029465
872.1772715052994	0.3487237407825887	2.051874915137887
869.1399117424723	0.48327968921512365	2.8289761692285538
872.1779229232486	0.35576039366424084	2.0834744963794947
868.9094895890559	0.4100484298542142	2.302832819521427
872.1754033983158	0.3585671619512141	2.1077032033354044
868.8023348829507	0.5181583492085338	2.8980009593069553
872.6305817263266	0.49163463432341814	2.79063343629241
876.809320874635	0.392475294880569	2.1452283281832933
872.518012953571	0.39240993466228247	2.2419742941856384
876.5803490798195	0.48089344101026654	2.612058315426111
874.301186973128	0.3811014676466584	2.153886631131172
876.5803483089783	0.48728389479219913	2.6504972465336323
873.166707759341	0.3800569479353726	2.1417815256863832
876.3497344660909	0.46220795903354883	2.5453433133661747
878.4110915036894	0.49148911610245705	2.619521666318178
876.1213918946704	0.34514745278283954	1.8950547259300947
878.2970068957472	0.449602163862437	2.386228136718273
120.42	0.3510655928403139	1.9225748721510172
880.2495797866474	0.45595808885991573	2.4110574312508106
876.8102249028155	0.3783082654699683	2.0804260224103928
880.1354404101169	0.429891889449209	2.2886152267456055
120.42	0.4812338063493371	2.6073031090199947
880.4809834449512	0.3926652087830007	2.0966228917241096
882.3617595806892	0.3086286326870322	1.6558455228805542
880.4616448668518	0.3996143043041229	2.1453430112451315
882.4452003517639	0.30961766047403216	1.6678495202213526
880.461630335646	0.3977176402695477	2.1272544097155333
885.2693695355406	0.3830486969090998	2.0846509635448456
882.4452880533703	0.304640453774482	1.6658998187631369
884.5699364137025	0.3618709114380181	1.9727082420140505
882.4452560199795	0.3127376604825258	1.6744150780141354
885.2693670363408	0.38134934147819877	2.057588318362832
888.5447008067872	0.31465282710269094	1.6921238712966442
885.268971151021	0.37948350980877876	2.059249458834529
888.7780109239384	0.30055362172424793	1.602297406643629
885.2673458467946	0.3978569936007261	2.153764545917511
888.5446773279028	0.34610935114324093	1.8501057270914316
885.04104797426	0.34620307479053736	1.8922750819474459
888.5446778496296	0.31555059691891074	1.6977546755224466
889.4876644277645	0.34744737576693296	1.8662347830832005
888.5446764322735	0.3148723333142698	1.6844669114798307
893.7458786838363	0.2729705832898617	1.5020059924572706
888.5446703866196	0.39612803934141994	2.1279795188456774
892.6770713446178	0.35015302058309317	1.8982733823359013
889.2540562391135	0.3196349609643221	1.6692122090607882
892.67707020451	0.3639796869829297	1.9749058112502098
888.8993571755112	0.36594541324302554	1.971037259325385
893.5060983269968	0.3464312180876732	1.8803241215646267
892.3227534174755	0.3786856262013316	2.0634361635893583
895.0547461175289	0.3376816473901272	1.8759252913296223
893.0383625511491	0.31584163242951035	1.710750149562955
895.0547376540657	0.32603281550109386	1.8022032119333744
897.0881779886114	0.29919463163241744	1.769446887075901
894.8194503170523	0.3829167429357767	2.1011363994330168
897.0881776102485	0.30176339531317353	1.7889610826969147
894.8194444153676	0.3816712088882923	2.0901979003101587
897.9275313011916	0.30549136362969875	1.905963633209467
901.30225536643	0.2822233005426824	1.8152837939560413
897.9241895940489	0.34759412659332156	2.150512596592307
901.3022552557128	0.2826956161297858	1.800523592159152
897.9236982599272	0.3523715538904071	2.1726498268544674
901.3009512261624	0.2812503054738045	1.7834055162966251
897.9256740992606	0.3341756509616971	2.038408337160945
901.3022744304792	0.2875729319639504	1.8466478288173676
902.1481383688363	0.24794890824705362	1.6139413099735975
900.8738067733716	0.33233324624598026	2.114723838865757
903.847773105173	0.3021740484982729	1.9439277704805136
901.6624345678174	0.31377848610281944	2.0389472395181656
904.0681212564417	0.30348001094534993	1.9154407866299152
901.3029289666325	0.2785643897950649	1.8146893959492445
905.8001973049248	0.34292892552912235	2.204974517226219
903.6040606294721	0.3403613967821002	2.1884421966969967
905.7988071397683	0.3415785660035908	2.1922749914228916
906.7734529910362	0.2783917421475053	1.8312956970185041
905.798802168416	0.33557656966149807	2.199125438928604
907.8794453855245	0.24402732402086258	1.5795694813132286
905.7987941975149	0.3374855681322515	2.1549126654863358
909.3551866769271	0.31027249014005065	1.987990090623498
906.1638326511501	0.32164508244022727	2.0897736828774214
909.355184296859	0.3115155571140349	1.9809867348521948
909.8450614942776	0.20977882761508226	1.4563515949994326
912.4385648829804	0.17437481973320246	1.158072005957365
909.9701608329015	0.2697001309134066	1.7796504069119692
912.4385645543521	0.17456966429017484	1.1686146594583988
909.9701628699925	0.2725426610559225	1.7854217886924744
912.4385656187017	0.17424903251230717	1.1645598895847797
914.1808184275538	0.1983371740207076	1.3279419429600239
912.438557783855	0.17903632344678044	1.2200194578617811
914.178216795621	0.21429974609054625	1.4330675043165684
911.2030847159801	0.21141775324940681	1.403761686757207
916.8022145895288	0.18615313502959907	1.2239385843276978
914.1782134085962	0.22726686974056065	1.5041751973330975
